Phase uvw1-uvv uvw1-uvvErr
-15.0 1.8904512154717608 0.5270786385225168
-14.94994994994995 1.891165886414464 0.5245683470544346
-14.8998998998999 1.8918610918667118 0.5220371779422651
-14.84984984984985 1.8925364386961223 0.5194850429378118
-14.7997997997998 1.8931915284001994 0.5169118554458974
-14.74974974974975 1.893825957042621 0.5143175305943515
-14.6996996996997 1.8944393151888261 0.5117019853060882
-14.64964964964965 1.8950311878408934 0.509065138373338
-14.5995995995996 1.8956011543717042 0.5064069105341148
-14.54954954954955 1.8961487884583796 0.5037272245509892
-14.4994994994995 1.896673658014978 0.5010260052922528
-14.44944944944945 1.897175325124469 0.4983031798155472
-14.3993993993994 1.8976533459699416 0.4955586774540591
-14.34934934934935 1.8981072707650677 0.492792429905358
-14.2992992992993 1.8985366436838018 0.49000437132298263
-14.24924924924925 1.8989410027892988 0.48719443841086735
-14.1991991991992 1.8993198799620665 0.4843625705207216
-14.14914914914915 1.899672800827319 0.48150870975246113
-14.0990990990991 1.899999284681541 0.478632801057815
-14.04904904904905 1.9002988444182392 0.4757347923472241
-13.998998998999 1.9005709864528892 0.47281463460015455
-13.94894894894895 1.900815210647059 0.46987228197896336
-13.8988988988989 1.9010310102316936 0.46690769194645504
-13.84884884884885 1.9012178717295773 0.46392082538726587
-13.7987987987988 1.901375274876929 0.46091164673324475
-13.74874874874875 1.9015026925441592 0.45788012409297607
-13.6986986986987 1.9015995906557435 0.45482622938562906
-13.64864864864865 1.9016654281092407 0.4517499384793004
-13.598598598598599 1.9016996566934086 0.4486512313340466
-13.548548548548549 1.9017017210054399 0.4455300921498033
-13.498498498498499 1.9016710583672913 0.4423865095193998
-13.448448448448449 1.901607098741096 0.43922047658689456
-13.398398398398399 1.9015092646436664 0.43603199121146125
-13.348348348348349 1.9013769710600512 0.43282105613707905
-13.298298298298299 1.9012096253561666 0.42958767916828444
-13.248248248248249 1.9010066271904638 0.4263318733522677
-13.198198198198199 1.9007673684246449 0.4230536571676044
-13.148148148148149 1.9004912330334058 0.41975305471993535
-13.098098098098099 1.900177597013195 0.4164300959449328
-13.048048048048049 1.8998258282899907 0.4130848168188924
-12.997997997997999 1.8994352866260606 0.40971725957734145
-12.947947947947949 1.8990053235257291 0.40632747294204624
-12.897897897897899 1.8985352821401098 0.4029155123568552
-12.847847847847849 1.8980244971708085 0.3994814402328199
-12.797797797797799 1.897472294772577 0.3960253262030861
-12.747747747747749 1.896877992454932 0.39254724738805347
-12.697697697697699 1.8962408989826807 0.3890472886713701
-12.647647647647648 1.895560314275389 0.3855255429873381
-12.597597597597598 1.894835529305757 0.3819821116203573
-12.547547547547548 1.8940658259968912 0.37841710451708377
-12.497497497497498 1.8932504771184806 0.3748306406120201
-12.447447447447448 1.8923887461818225 0.37122284816730977
-12.397397397397398 1.8914798873337466 0.3675938651275633
-12.347347347347348 1.8905231452493743 0.36394383949060555
-12.297297297297296 1.8895177550237237 0.36027292969510605
-12.247247247247246 1.8884629420621457 0.3565813050261124
-12.197197197197196 1.8873579219695875 0.35286914603960345
-12.147147147147146 1.8862019004386426 0.349136645007259
-12.097097097097096 1.8849940731364139 0.3453840063827262
-12.047047047047046 1.8837336255901462 0.34161144729078896
-11.996996996996996 1.882419733071636 0.33781919804093535
-11.946946946946946 1.881051560480386 0.3340075026669605
-11.896896896896896 1.8796282622255123 0.3301766194943674
-11.846846846846846 1.8781489821063775 0.32632682173748
-11.796796796796796 1.8766128531919417 0.3224583981283436
-11.746746746746746 1.8750189976988159 0.31857165357967
-11.696696696696696 1.8733665268679986 0.3146669098842832
-11.646646646646646 1.8716545408403094 0.31074450645372037
-11.596596596596596 1.8698821285304559 0.30680480109891584
-11.546546546546546 1.8680483674997772 0.30284817085611543
-11.496496496496496 1.866152323827605 0.2988750128614921
-11.446446446446446 1.8641930519812504 0.2948857452782358
-11.396396396396396 1.8621695946845929 0.2908808082802492
-11.346346346346346 1.8600809827852773 0.28686066509695707
-11.296296296296296 1.857926235120467 0.28282580312419037
-11.246246246246246 1.8557043583811719 0.27877673510656414
-11.196196196196196 1.8534143469751183 0.27471400039729815
-11.146146146146146 1.851055182888166 0.270638166302003
-11.096096096096096 1.84862583554422 0.26654982951363915
-11.046046046046046 1.8461252616636656 0.26244961764650976
-10.995995995995996 1.843552405120278 0.2583381908779911
-10.945945945945946 1.8409061967966092 0.25421624370755974
-10.895895895895896 1.838185554437827 0.2500845068436589
-10.845845845845846 1.835389382503996 0.2459437492299995
-10.795795795795796 1.8325165720207854 0.24179478022412218
-10.745745745745745 1.8295660004285723 0.23763845194233818
-10.695695695695695 1.8265365314299538 0.23347566178661477
-10.645645645645645 1.8234270148356115 0.22930735517062795
-10.595595595595595 1.8202362864085617 0.22513452846390586
-10.545545545545545 1.8169631677067153 0.22095823217501248
-10.495495495495495 1.81360646592378 0.2167795743967729
-10.445445445445445 1.810164973728476 0.21259972453894213
-10.395395395395395 1.8066374691020142 0.20841991737620968
-10.345345345345345 1.8030227151738725 0.20424145744215919
-10.295295295295295 1.7993194600558113 0.20006572380277654
-10.245245245245245 1.7955264366741228 0.1958941752461395
-10.195195195195195 1.7916423626001092 0.19172835592824208
-10.145145145145145 1.7876659398787529 0.18756990151819852
-10.095095095095095 1.7835958548555644 0.18342054588947476
-10.045045045045045 1.779430778001596 0.1792821284069914
-9.994994994994995 1.775169363736603 0.17515660186294404
-9.944944944944945 1.770810250250316 0.17104604111660734
-9.894894894894895 1.7663520593218345 0.16695265249492608
-9.844844844844845 1.7617933961370875 0.16287878401096767
-9.794794794794795 1.7571328491043787 0.1588269364555657
-9.744744744744745 1.7523689896679615 0.15479977541301665
-9.694694694694695 1.7475003721196511 0.15080014424328825
-9.644644644644643 1.7425255334084269 0.14683107805956913
-9.594594594594593 1.7374429929480453 0.1428958187090854
-9.544544544544543 1.7322512524225897 0.1389978307347857
-9.494494494494493 1.7269487955899787 0.13514081825246846
-9.444444444444443 1.7215340880833985 0.13132874261864758
-9.394394394394393 1.7160055772106224 0.12756584068419563
-9.344344344344343 1.7103616917512308 0.12385664332198429
-9.294294294294293 1.7046008417516658 0.12020599377707895
-9.244244244244243 1.6987214183181452 0.1166190652080688
-9.194194194194193 1.6927217934073677 0.11310137656066802
-9.144144144144143 1.6866003196150285 0.10965880563222516
-9.094094094094093 1.6803553299620928 0.10629759784349034
-9.044044044044043 1.6739851376788146 0.10302436883002385
-8.993993993993993 1.6674880359864943 0.09984609850618863
-8.943943943943943 1.660862297876905 0.09677011375658685
-8.893893893893893 1.654106175889433 0.09380405640747255
-8.843843843843842 1.6472179018858393 0.09095583268146588
-8.793793793793792 1.640195686822668 0.08823354002936173
-8.743743743743742 1.6330377205212494 0.08564536718270412
-8.693693693693692 1.625742171435288 0.08319946363009012
-8.643643643643642 1.618308014246503 0.08090275213910626
-8.593593593593592 1.6107405958221181 0.07875388725210325
-8.543543543543542 1.6030482194477584 0.07674747138593972
-8.493493493493492 1.5952391854365182 0.07487780758996031
-8.443443443443442 1.5873217758134577 0.07313902751457008
-8.393393393393392 1.5793042556045 0.07152520767788564
-8.343343343343342 1.5711948741233983 0.0700304912763938
-8.293293293293292 1.5630018662568912 0.0686492118008563
-8.243243243243242 1.554733453748227 0.0673760144581808
-8.193193193193192 1.5463978464791617 0.06620597131607223
-8.143143143143142 1.53800324375062 0.06513468616065035
-8.093093093093092 1.5295578355621364 0.06415838525669328
-8.043043043043042 1.5210698038902366 0.063273990490298
-7.992992992992993 1.512547323965888 0.06247917172460523
-7.942942942942943 1.5039985655511958 0.06177237559347442
-7.892892892892893 1.49543169421545 0.06115282839565776
-7.842842842842843 1.4868548726107147 0.06062051125216353
-7.792792792792793 1.478276261747058 0.06017610628661939
-7.742742742742743 1.4697040222676085 0.05982091332369946
-7.692692692692693 1.461146315723557 0.05955673751080217
-7.642642642642643 1.452611000515152 0.05938429913644298
-7.592592592592593 1.444104413462628 0.05929734504759457
-7.5425425425425425 1.4356324206657767 0.059287755251043926
-7.492492492492492 1.4272008934130471 0.05934798686914044
-7.442442442442442 1.418815709266187 0.05947123118500713
-7.3923923923923915 1.4104827529912702 0.05965153579435365
-7.3423423423423415 1.4022079174905373 0.059883893102153016
-7.2922922922922915 1.393997104735167 0.06016429685992249
-7.2422422422422414 1.3858562266990884 0.060489769118814936
-7.192192192192191 1.377791206293927 0.06085836023354769
-7.142142142142141 1.36980797830521 0.06126912451260919
-7.092092092092091 1.3619124903299082 0.06172207389368908
-7.042042042042041 1.3541107037154656 0.062218111740709285
-6.991991991991991 1.3464085945003859 0.06275894859957848
-6.941941941941941 1.338812154356498 0.0633470015789382
-6.891891891891891 1.3313273915330148 0.06398527897842679
-6.841841841841841 1.3239603318024846 0.06467725188520448
-6.791791791791791 1.3167170194087379 0.06542671468897153
-6.741741741741741 1.3096035180169592 0.06623763679560145
-6.691691691691691 1.3026259109120994 0.06711400676434845
-6.641641641641641 1.2957887915487034 0.06805680457692766
-6.591591591591591 1.2890920979911251 0.06905791173291173
-6.541541541541541 1.2825348881681893 0.07010741605201391
-6.491491491491491 1.2761162419921923 0.07119548545203296
-6.441441441441441 1.26983526125765 0.07231249552674271
-6.391391391391391 1.26369106954255 0.07344912832219089
-6.341341341341341 1.2576828121120829 0.07459644547327471
-6.291291291291291 1.251809655824891 0.07574593933523852
-6.241241241241241 1.2460707890417682 0.07688956583401606
-6.191191191191191 1.2404654215368403 0.07801976258390238
-6.141141141141141 1.2349927844112083 0.07912945548413541
-6.091091091091091 1.229652130009032 0.08021205658893117
-6.041041041041041 1.2244427318360736 0.08126145560659997
-5.990990990990991 1.219363884480653 0.08227200696088123
-5.940940940940941 1.2144149035370568 0.08323851396401057
-5.890890890890891 1.2095951255313508 0.08415621131685201
-5.8408408408408405 1.204903907849602 0.08502074686966873
-5.7907907907907905 1.2003406286685225 0.08582816334567325
-5.7407407407407405 1.1959046868884995 0.08657488054349295
-5.6906906906906904 1.1915955020690188 0.08725767838839406
-5.64064064064064 1.1874125143664829 0.08787368108909471
-5.59059059059059 1.183355184474389 0.0884203425714365
-5.54054054054054 1.1794229935659102 0.08889543329692651
-5.49049049049049 1.1756154432388195 0.08929702852848095
-5.44044044044044 1.1719320554627901 0.08962349807389784
-5.39039039039039 1.1683723725290485 0.08987349751664449
-5.34034034034034 1.1649359570023863 0.09004596093069579
-5.29029029029029 1.1616223916755133 0.0901400950696919
-5.24024024024024 1.158431279525758 0.09015537501881869
-5.19019019019019 1.1553622436741138 0.09009154129932732
-5.14014014014014 1.1524149273466076 0.0899485984196224
-5.09009009009009 1.149588993838015 0.08972681487232502
-5.04004004004004 1.1468841264778953 0.08942672458314145
-4.98998998998999 1.1443000285989589 0.08904912982398189
-4.93993993993994 1.1418364235077494 0.08859510560896029
-4.88988988988989 1.1394930544576514 0.08806600559697171
-4.83983983983984 1.1372696846242194 0.0874634695276065
-4.78978978978979 1.1351660970828088 0.08678943221725277
-4.73973973973974 1.1331820947885367 0.0860461341380213
-4.68968968968969 1.1313175005585387 0.08523613359197801
-4.63963963963964 1.1295721570565533 0.0843623204748645
-4.58958958958959 1.1279459267797907 0.08342793159435852
-4.53953953953954 1.126438692048134 0.08243656746448388
-4.48948948948949 1.125050354995633 0.08139221043560227
-4.43943943943944 1.123780837564302 0.08029924393319772
-4.38938938938939 1.1226300815002408 0.0791624724620315
-4.33933933933934 1.1215980483520336 0.07798714187747581
-4.289289289289288 1.12068471947148 0.07677895922504314
-4.239239239239238 1.1198900960166154 0.07554411119301192
-4.189189189189188 1.119214198957044 0.0742892799042591
-4.139139139139138 1.1186570690815807 0.07302165438555842
-4.089089089089088 1.1182187670081956 0.07174893559518652
-4.039039039039038 1.1178993731962723 0.07047933237016402
-3.9889889889889876 1.1176989879611787 0.06922154509406349
-3.9389389389389375 1.1176177314911473 0.06798473332624946
-3.8888888888888875 1.117655743866465 0.06677846314077412
-3.8388388388388375 1.1178131850810011 0.06561262959769441
-3.7887887887887874 1.118090235066024 0.06449734974429133
-3.7387387387387374 1.118487093716364 0.0634428219802659
-3.6886886886886874 1.1190039095135333 0.06245879528838889
-3.6386386386386373 1.1196393910384503 0.06154750869576969
-3.5885885885885873 1.1203909014610662 0.060704140141736675
-3.5385385385385373 1.1212557709248963 0.059923463396675876
-3.4884884884884872 1.1222313485831203 0.05920028741544942
-3.438438438438437 1.123315002195263 0.05852963056195949
-3.388388388388387 1.1245041177260626 0.05790688541968347
-3.338338338338337 1.125796098946453 0.05732797097928086
-3.288288288288287 1.12718836703663 0.05678946964240297
-3.238238238238237 1.128678360191161 0.056288747040335145
-3.188188188188187 1.1302635332260749 0.05582405306525997
-3.138138138138137 1.1319413571878996 0.05539460270997109
-3.088088088088087 1.1337093189646066 0.055000635298464495
-3.038038038038037 1.1355649208984175 0.05464345048725068
-2.987987987987987 1.1375056804004071 0.054325419079076974
-2.937937937937937 1.139529129566894 0.05404996630152409
-2.887887887887887 1.1416328147975459 0.05382152487637654
-2.837837837837837 1.1438142964151805 0.05364545508048566
-2.787787787787787 1.146071148287186 0.05352792922923076
-2.7377377377377368 1.1484009574485627 0.05347577875034358
-2.6876876876876867 1.1508012417267413 0.0534956945668066
-2.6376376376376367 1.1532685743288278 0.05358754799392052
-2.5875875875875867 1.1557989211099544 0.053746938452842334
-2.5375375375375366 1.1583882487810353 0.053969906964382634
-2.4874874874874866 1.1610325346895642 0.05425318765346886
-2.4374374374374366 1.1637277662003724 0.05459434743402346
-2.3873873873873865 1.1664699400776022 0.05499189042833295
-2.3373373373373365 1.1692550618677795 0.05544532742019524
-2.2872872872872865 1.1720791452839672 0.05595521127722293
-2.2372372372372364 1.1749382115908826 0.05652313962253284
-2.1871871871871864 1.1778282889909448 0.05715172621080794
-2.1371371371371364 1.1807454120111585 0.05784454259265009
-2.0870870870870863 1.1836856208907727 0.05860603184317767
-2.0370370370370363 1.1866449609696552 0.05944139646459369
-1.9869869869869863 1.1896194820772912 0.0603564630864441
-1.9369369369369362 1.1926052379223553 0.061357527273775817
-1.8868868868868862 1.1955982854827787 0.06245118255737019
-1.8368368368368362 1.1985946843962494 0.06364413862480121
-1.7867867867867862 1.2015904963510566 0.06494303433048734
-1.7367367367367361 1.2045817844772493 0.06635425166236109
-1.686686686686686 1.207565001744039 0.06788229048346874
-1.636636636636636 1.2105392526955392 0.06952125016685082
-1.586586586586586 1.2135047480898782 0.07126072137023323
-1.536536536536536 1.2164617025107494 0.07309012756902253
-1.486486486486486 1.219410330703886 0.07499893960619605
-1.436436436436436 1.2223508475926463 0.07697683202630926
-1.386386386386386 1.2252834682936606 0.07901379911977319
-1.3363363363363359 1.2282084081325597 0.08110023620624943
-1.2862862862862858 1.2311258826597702 0.08322699210925677
-1.2362362362362358 1.234036107666399 0.0853853985955274
-1.1861861861861858 1.2369392992001877 0.0875672820104182
-1.1361361361361357 1.2398356735815508 0.08976496162037628
-1.0860860860860857 1.2427254474196905 0.09197123840462079
-1.0360360360360357 1.2456088376287964 0.09417937730277266
-0.9859859859859856 1.2484860614443258 0.0963830852673966
-0.9359359359359356 1.2513573364393769 0.09857648690952221
-0.8858858858858856 1.2542228805411317 0.10075409906343402
-0.8358358358358355 1.2570829120474014 0.10291080522748532
-0.7857857857857855 1.2599376496432542 0.10504183054891515
-0.7357357357357355 1.2627873124177216 0.10714271779972413
-0.6856856856856854 1.2656321198806206 0.10920930462480095
-0.6356356356356354 1.2684722919794358 0.11123770222166313
-0.5855855855855854 1.2713080491163287 0.11322427552332001
-0.5355355355355353 1.2741396121652082 0.11516562489418648
-0.4854854854854853 1.2769672024889236 0.11705856930702964
-0.4354354354354353 1.2797910419565417 0.11890013094171233
-0.38538538538538525 1.28261135296072 0.12068752112985093
-0.3353353353353352 1.2854283584351909 0.12241812756076634
-0.2852852852852852 1.2882422818723405 0.12408950266059966
-0.23523523523523515 1.2910533473408845 0.12569935305693458
-0.18518518518518512 1.2938617795036593 0.1272455300440485
-0.1351351351351351 1.2966678036355141 0.12872602096849242
-0.08508508508508505 1.2994716456413022 0.13013894146011346
-0.035035035035033246 1.3022735320739989 0.13148252843962438
0.015015015015016786 1.3050736901529023 0.13275513384000256
0.06506506506506682 1.3078723477819774 0.13395521898507812
0.11511511511511685 1.3106697335682835 0.1350813495747944
0.16516516516516688 1.3134660768405333 0.13613219123225181
0.21521521521521692 1.3162616076677642 0.13710650557324797
0.26526526526526695 1.31905655687812 0.13800314676417497
0.315315315315317 1.321851156077764 0.13882105853910737
0.365365365365367 1.3246456376698972 0.1395592716515978
0.41541541541541704 1.3274402348739134 0.1402169017411509
0.4654654654654671 1.3302351817446625 0.14079314759867012
0.5155155155155171 1.3330307131918526 0.14128728981927108
0.5655655655655671 1.335827064999571 0.14169868983496917
0.6156156156156172 1.3386244738459312 0.14202678932374296
0.6656656656656672 1.3414231773228598 0.14227110999551776
0.7157157157157172 1.3442234139559992 0.14243125375973573
0.7657657657657673 1.3470254232247632 0.1425069032834072
0.8158158158158173 1.3498294455825062 0.14249782295298552
0.8658658658658673 1.3526357224768457 0.14240386025815
0.9159159159159174 1.3554444963701129 0.14222494762058036
0.9659659659659674 1.3582560107599475 0.1419611046963658
1.0160160160160174 1.3610705102000331 0.14161244118665317
1.0660660660660675 1.3638882403209744 0.14117916019781082
1.1161161161161175 1.3667094478513224 0.14066156219976061
1.1661661661661675 1.369534380638741 0.14006004963937316
1.2162162162162176 1.3723632876713308 0.13937513227509202
1.2662662662662676 1.3751964190990944 0.1386074333093605
1.3163163163163176 1.3780340262555573 0.13775769640718635
1.3663663663663677 1.3808763616795487 0.13682679370241685
1.4164164164164177 1.3837236791371241 0.13581573490827809
1.4664664664664677 1.3865762336436611 0.13472567766558036
1.5165165165165178 1.3894342814861067 0.13355793928090498
1.5665665665665678 1.3922980802453848 0.1323140100283568
1.6166166166166178 1.3951678888189714 0.13099556821198188
1.6666666666666679 1.3980439674436353 0.12960449721207148
1.7167167167167179 1.4009265777183406 0.12814290476695492
1.766766766766768 1.403815982627326 0.12661314477253002
1.816816816816818 1.40671244656335 0.12501784191386867
1.866866866866868 1.40961623535111 0.12335991947613775
1.916916916916918 1.4125276162708427 0.1216426307137843
1.966966966966968 1.4154468580820905 0.11986959418539868
2.017017017017018 1.4183742310476615 0.11804483348278552
2.067067067067068 1.4213100069577538 0.1161728217913539
2.117117117117118 1.4242544591542852 0.11425853170704527
2.167167167167168 1.4272078625553875 0.11230749069188756
2.217217217217218 1.4301704936800996 0.11032584246087959
2.2672672672672682 1.4331426306732533 0.1083204144372861
