Phase uvw1-uvv uvw1-uvvErr
-15.0 0.9114366355554395 0.47778587142814016
-14.94994994994995 0.9102820365630548 0.47476844920778727
-14.8998998998999 0.9091114684676245 0.47172822630357497
-14.84984984984985 0.9079247407201212 0.46866516369794003
-14.7997997997998 0.9067216606639898 0.46557922610572844
-14.74974974974975 0.9055020335128847 0.4624703821136551
-14.6996996996997 0.9042656623281926 0.4593386043246465
-14.64964964964965 0.9030123479963157 0.456183869507291
-14.5995995995996 0.9017418892057325 0.4530061587506209
-14.54954954954955 0.9004540824238172 0.44980545762447055
-14.4994994994995 0.8991487218734204 0.44658175634567254
-14.44944944944945 0.8978255995092161 0.4433350499503594
-14.3993993993994 0.8964845049938053 0.44006533847266344
-14.34934934934935 0.8951252256735729 0.43677262713012316
-14.2992992992993 0.8937475465542977 0.43345692651612117
-14.24924924924925 0.8923512502765198 0.4301182527997078
-14.1991991991992 0.8909361170906498 0.4267566279331662
-14.14914914914915 0.8895019248318243 0.4233720798677346
-14.0990990990991 0.8880484488945071 0.4199646427778838
-14.04904904904905 0.88657546220683 0.41653435729461774
-13.998998998999 0.8850827352046775 0.4130812707482552
-13.94894894894895 0.8835700358054932 0.4096054374212289
-13.8988988988989 0.8820371293818339 0.4061069188114242
-13.84884884884885 0.8804837787346449 0.4025857839066574
-13.7987987987988 0.8789097440662694 0.39904210947091545
-13.74874874874875 0.877314782953176 0.39547598034303316
-13.6986986986987 0.8756986503184108 0.39188748974851517
-13.64864864864865 0.8740610984037771 0.3882767396252978
-13.598598598598599 0.8724018767417123 0.3846438409642624
-13.548548548548549 0.8707207321269033 0.3809889141654022
-13.498498498498499 0.8690174085875892 0.3773120894106166
-13.448448448448449 0.867291647356591 0.37361350705414176
-13.398398398398399 0.8655431868420334 0.3698933180317746
-13.348348348348349 0.8637717625977757 0.3661516842900628
-13.298298298298299 0.8619771072935369 0.36238877923678947
-13.248248248248249 0.8601589506847265 0.35860478821415537
-13.198198198198199 0.8583170195819545 0.3547999089961802
-13.148148148148149 0.8564510378202443 0.35097435231199686
-13.098098098098099 0.8545607262279227 0.34712834239681356
-13.048048048048049 0.8526458025952046 0.3432621175725012
-12.997997997997999 0.8507059816424432 0.33937593085992945
-12.947947947947949 0.8487409749880761 0.33547005062534335
-12.897897897897899 0.8467504911162316 0.33154476126328947
-12.847847847847849 0.8447342353440106 0.3276003639188306
-12.797797797797799 0.8426919097884393 0.32363717725201885
-12.747747747747749 0.8406232133330838 0.31965553824787724
-12.697697697697699 0.8385278415943234 0.3156558030754572
-12.647647647647648 0.8364054868872912 0.3116383479998317
-12.597597597597598 0.8342558381914509 0.3076035703513113
-12.547547547547548 0.8320785811158469 0.30355188955651213
-12.497497497497498 0.8298733978639878 0.29948374823640467
-12.447447447447448 0.8276399671983767 0.2953996133769464
-12.397397397397398 0.8253779644046844 0.2912999775784762
-12.347347347347348 0.8230870612555552 0.28718536039062137
-12.297297297297296 0.8207669259740491 0.2830563097402004
-12.247247247247246 0.8184172231967206 0.2789134034603225
-12.197197197197196 0.8160376139363079 0.274757250929734
-12.147147147147146 0.8136277555440523 0.27058849483241104
-12.097097097097096 0.8111873016716433 0.2664078130483887
-12.047047047047046 0.808715902232769 0.2622159206880283
-11.996996996996996 0.8062132033642795 0.25801357228313665
-11.946946946946946 0.8036788473869587 0.25380156414981353
-11.896896896896896 0.8011124727658976 0.2495807369394544
-11.846846846846846 0.7985137140704743 0.2453519783960731
-11.796796796796796 0.7958822019339162 0.24111622634005497
-11.746746746746746 0.7932175630124629 0.23687447190056124
-11.696696696696696 0.7905194199441115 0.23262776302117458
-11.646646646646646 0.7877873913069549 0.22837720826593216
-11.596596596596596 0.7850210915770848 0.22412398095578148
-11.546546546546546 0.7822201310860739 0.21986932366853823
-11.496496496496496 0.7793841159780446 0.2156145531388119
-11.446446446446446 0.7765126481662736 0.21136106559803483
-11.396396396396396 0.7736053252893875 0.2071103425985492
-11.346346346346346 0.7706617406670999 0.20286395736989954
-11.296296296296296 0.7676814832555088 0.1986235817597286
-11.246246246246246 0.7646641376019352 0.1943909938160899
-11.196196196196196 0.7616092837993158 0.1901680860723449
-11.146146146146146 0.7585164974401326 0.18595687459999188
-11.096096096096096 0.7553853495698732 0.18175950889846249
-11.046046046046046 0.7522154066400211 0.17757828269379425
-10.995995995995996 0.7490062304605873 0.1734156457196291
-10.945945945945946 0.7457573781521465 0.16927421655359004
-10.895895895895896 0.7424684020973922 0.16515679657870458
-10.845845845845846 0.7391388498922147 0.16106638513213256
-10.795795795795796 0.735768264296272 0.15700619589041587
-10.745745745745745 0.7323561831830749 0.1529796745195693
-10.695695695695695 0.7289021394895656 0.14899051758733714
-10.645645645645645 0.7254056611651831 0.14504269269002526
-10.595595595595595 0.7218662711204209 0.1411404596838617
-10.545545545545545 0.7182834871748704 0.1372883928252271
-10.495495495495495 0.714656822004738 0.13349140350975272
-10.445445445445445 0.7109857830898256 0.12975476314970522
-10.395395395395395 0.7072698726599971 0.12608412553467635
-10.345345345345345 0.7035085876410883 0.12248554777417296
-10.295295295295295 0.6997014196002838 0.1189655086145609
-10.245245245245245 0.6958478546909361 0.11553092255161057
-10.195195195195195 0.6919473735968438 0.11218914772244905
-10.145145145145145 0.687999451475952 0.1089479850641753
-10.095095095095095 0.6840035579035038 0.10581566568992344
-10.045045045045045 0.6799591568146062 0.10280082289523534
-9.994994994994995 0.6758657064462337 0.0999124447309728
-9.944944944944945 0.6717226592786372 0.09715980275810454
-9.894894894894895 0.6675294619761643 0.09455235256280818
-9.844844844844845 0.6632855553275048 0.0920996020167074
-9.794794794794795 0.658990374185308 0.08981094429248372
-9.744744744744745 0.6546433474052142 0.08769545445109203
-9.694694694694695 0.6502438977842699 0.08576165110296287
-9.644644644644643 0.6457914420187303 0.08401722813033602
-9.594594594594593 0.6412864822808564 0.0824658182682233
-9.544544544544543 0.6367335408830261 0.08109887097191681
-9.494494494494493 0.6321380627369917 0.07990411140594336
-9.444444444444443 0.6275054882207451 0.07886825979451793
-9.394394394394393 0.6228412540221708 0.07797727408948868
-9.344344344344343 0.6181507939823494 0.07721660918073374
-9.294294294294293 0.6134395399386097 0.07657147949378905
-9.244244244244243 0.6087129225674424 0.07602711285895848
-9.194194194194193 0.6039763722273339 0.0755689856016015
-9.144144144144143 0.5992353198016567 0.0751830314855897
-9.094094094094093 0.5944951975416897 0.07485582001715514
-9.044044044044043 0.5897614399098614 0.07457470232250303
-8.993993993993993 0.585039484423344 0.07432792509679347
-8.943943943943943 0.5803347724980339 0.07410471485174125
-8.893893893893893 0.5756527502930846 0.0738953358374666
-8.843843843843842 0.5709988695560415 0.07369112563090958
-8.793793793793792 0.5663785884686854 0.07348451256233746
-8.743743743743742 0.5617973724936924 0.07326901900324473
-8.693693693693692 0.5572606952221888 0.07303925416932958
-8.643643643643642 0.5527740392223193 0.07279089959086209
-8.593593593593592 0.548342896888897 0.07252068983865081
-8.543543543543542 0.5439727712942737 0.07222639051391004
-8.493493493493492 0.5396691770404585 0.07190677494354099
-8.443443443443442 0.5354376411126778 0.07156160048239027
-8.393393393393392 0.5312837037343769 0.0711915848142076
-8.343343343343342 0.5272129192238284 0.07079838215996247
-8.293293293293292 0.5232308568524109 0.07038455883944686
-8.243243243243242 0.5193431017046735 0.06995356718335072
-8.193193193193192 0.5155552555402603 0.06950971635501207
-8.143143143143142 0.5118729376578306 0.06905813821628672
-8.093093093093092 0.5083017857610395 0.06860474597200758
-8.043043043043042 0.504847456826677 0.06815618297483472
-7.992992992992993 0.5015156279750996 0.06771975880351314
-7.942942942942943 0.49831199734301346 0.06730336959325227
-7.892892892892893 0.495242284958733 0.06691539966116783
-7.842842842842843 0.492312233619993 0.06656460180428887
-7.792792792792793 0.48952760977444876 0.0662599543229643
-7.742742742742743 0.4868942044029161 0.06601049389077886
-7.692692692692693 0.48441783390550186 0.06582512486887428
-7.642642642642643 0.4821042609720647 0.06571224801327974
-7.592592592592593 0.47995590684417366 0.06567299606163848
-7.5425425425425425 0.4779706890217128 0.06569888083784936
-7.492492492492492 0.4761462332927848 0.06578037281212971
-7.442442442442442 0.4744801923644666 0.06590774548768923
-7.3923923923923915 0.4729702455203142 0.06607126436288499
-7.3423423423423415 0.47161409828096157 0.066261352699156
-7.2922922922922915 0.4704094820677851 0.06646873268039508
-7.2422422422422414 0.46935415386959156 0.0666845421618931
-7.192192192192191 0.46844589591229746 0.06690042843861602
-7.142142142142141 0.4676825153315487 0.06710862130194845
-7.092092092092091 0.4670618438482632 0.06730198813771991
-7.042042042042041 0.4665817374470478 0.06747407400860106
-6.991991991991991 0.46624007605745255 0.06761912963305558
-6.941941941941941 0.46603476323803394 0.06773212998991257
-6.891891891891891 0.465963725863183 0.06780878600104367
-6.841841841841841 0.4660249138126995 0.06784555142036132
-6.791791791791791 0.46621629966404865 0.06783962671793504
-6.741741741741741 0.4665358783872937 0.0677889614134955
-6.691691691691691 0.4669816670426592 0.06769225599463431
-6.641641641641641 0.4675517044806845 0.06754896425462377
-6.591591591591591 0.46824405104493994 0.06735929659948756
-6.541541541541541 0.4690567882772878 0.06712422459764386
-6.491491491491491 0.4699880186256007 0.06684548676764647
-6.441441441441441 0.47103586515399365 0.06652559530977167
-6.391391391391391 0.47219847125544123 0.06616784317298319
-6.341341341341341 0.47347400036681564 0.06577631049923878
-6.291291291291291 0.474860635686283 0.06535586909319292
-6.241241241241241 0.4763565798930254 0.06491218312183093
-6.191191191191191 0.4779600548692795 0.06445170375852784
-6.141141141141141 0.47966930142462805 0.06398165496232562
-6.091091091091091 0.4814825790225383 0.06351000705572407
-6.041041041041041 0.4833981655091002 0.06304543428279395
-5.990990990990991 0.4854143568439462 0.0625972521693936
-5.940940940940941 0.4875294668333139 0.06217533037044706
-5.890890890890891 0.48974182686522316 0.06178997690168882
-5.8408408408408405 0.4920497856467294 0.061451790350703896
-5.7907907907907905 0.49445170894324053 0.061171477969624605
-5.7407407407407405 0.4969459793198603 0.06095963954495584
-5.6906906906906904 0.4995309958847163 0.060826519601595755
-5.64064064064064 0.5022050650900252 0.06078046105123617
-5.59059059059059 0.5049655498327754 0.060817743898882254
-5.54054054054054 0.5078093296894866 0.060928055265368944
-5.49049049049049 0.5107332950894781 0.06110054260128534
-5.44044044044044 0.5137343511017602 0.06132412846304348
-5.39039039039039 0.5168094169533444 0.06158774724561106
-5.34034034034034 0.519955425549252 0.061880549181476466
-5.29029029029029 0.5231693229941585 0.06219207001424841
-5.24024024024024 0.526448068115623 0.06251236720644181
-5.19019019019019 0.5297886319888432 0.06283212531231937
-5.14014014014014 0.5331879974628813 0.06314273425323041
-5.09009009009009 0.5366431586883278 0.06343634476793926
-5.04004004004004 0.5401511206463108 0.06370590540417001
-4.98998998998999 0.5437088986788281 0.06394518520339829
-4.93993993993994 0.5473135180203401 0.06414878582773947
-4.88988988988989 0.5509620133305619 0.06431214637862828
-4.83983983983984 0.5546514282284154 0.0644315436289385
-4.78978978978979 0.5583788148270703 0.0645040898758683
-4.73973973973974 0.5621412332700431 0.0645277301440095
-4.68968968968969 0.5659357512682728 0.06450124003531864
-4.63963963963964 0.569759443638153 0.06442422513224628
-4.58958958958959 0.5736093918404406 0.06429712250341565
-4.53953953953954 0.5774826835199971 0.0641212045236892
-4.48948948948949 0.5813764120463183 0.0638985848861833
-4.43943943943944 0.585287676054788 0.06363222633480502
-4.38938938938939 0.5892135789886044 0.06332594926494059
-4.33933933933934 0.5931512286413436 0.06298443991066617
-4.289289289289288 0.5970977367000738 0.06261325634705346
-4.239239239239238 0.6010502182890083 0.06221882998020892
-4.189189189189188 0.6050057915136102 0.06180845958077074
-4.139139139139138 0.608961577005122 0.06139029426123862
-4.089089089089088 0.6129146974654496 0.06097330114906769
-4.039039039039038 0.6168622772123629 0.06056721294277526
-3.9889889889889876 0.6208014417249454 0.06018245016946245
-3.9389389389389375 0.6247293171892616 0.05983001293854356
-3.8888888888888875 0.6286430300441668 0.05952133748399767
-3.8388388388388375 0.6325397065272333 0.059268113987235936
-3.7887887887887874 0.6364164722206966 0.05908206421809513
-3.7387387387387374 0.6402704515974424 0.05897468047137237
-3.6886886886886874 0.6440987684379704 0.05895692713928218
-3.6386386386386373 0.6478995274621202 0.05903458000934137
-3.5885885885885873 0.6516737000216286 0.05919972365721003
-3.5385385385385373 0.6554227758646938 0.05944136522167211
-3.4884884884884872 0.6591482427426414 0.05974805136749628
-3.438438438438437 0.6628515866123614 0.060108154848767234
-3.388388388388387 0.666534291838609 0.060510125750416976
-3.338338338338337 0.670197841396188 0.06094270322849594
-3.288288288288287 0.6738437170720564 0.061395087112214024
-3.238238238238237 0.6774733996673372 0.06185707143878382
-3.188188188188187 0.6810883691993019 0.062319143802992076
-3.138138138138137 0.6846901051033221 0.06277255539854695
-3.088088088088087 0.6882800864348078 0.06320936696715183
-3.038038038038037 0.6918597920711738 0.06362247573728215
-2.987987987987987 0.6954307009138454 0.06400562799890243
-2.937937937937937 0.6989942920903134 0.0643534213629564
-2.887887887887887 0.7025520451562957 0.06466130009765589
-2.837837837837837 0.7061054402979756 0.0649255462858961
-2.787787787787787 0.7096559585343944 0.06514326894812987
-2.7377377377377368 0.7132050819199749 0.06531239274085902
-2.6876876876876867 0.7167542937472298 0.06543164737510399
-2.6376376376376367 0.720305078749657 0.06550055849502119
-2.5875875875875867 0.7238589233048469 0.06551944040265353
-2.5375375375375366 0.727417315637845 0.0654893906950243
-2.4874874874874866 0.7309817460247505 0.0654122865795374
-2.4374374374374366 0.7345537069966193 0.06529078233727113
-2.3873873873873865 0.7381346935436623 0.06512830709816503
-2.3373373373373365 0.7417262033197634 0.06492906176593918
-2.2872872872872865 0.7453297368473668 0.06469801357758156
-2.2372372372372364 0.7489467977227149 0.0644408864008139
-2.1871871871871864 0.7525788928214923 0.0641641444710173
-2.1371371371371364 0.7562275325048871 0.0638749668642093
-2.0870870870870863 0.7598942308260785 0.063581209628233
-2.0370370370370363 0.7635805057372085 0.06329135219936255
-1.9869869869869863 0.7672878792968081 0.06301442458421261
-1.9369369369369362 0.7710178778777619 0.06275991187189058
-1.8868868868868862 0.774772032375773 0.0625376330533063
-1.8368368368368362 0.778551878418402 0.062357591955286076
-1.7867867867867862 0.7823589565746685 0.06222979941425101
-1.7367367367367361 0.7861948125652483 0.062164067633266144
-1.686686686686686 0.7900609915732975 0.06216948809456579
-1.636636636636636 0.7939588840968954 0.062246574293338824
-1.586586586586586 0.797889711175835 0.062386512628030445
-1.536536536536536 0.8018546908721198 0.06257960851733851
-1.486486486486486 0.805855047330372 0.06281596169806718
-1.436436436436436 0.8098920109394154 0.06308567732533793
-1.386386386386386 0.8139668184946192 0.06337904968232858
-1.3363363363363359 0.818080713360992 0.06368671745915298
-1.2862862862862858 0.8222349456370452 0.06399979142424789
-1.2362362362362358 0.8264307723194533 0.06430995667284253
-1.1861861861861858 0.8306694574685165 0.0646095525058433
-1.1361361361361357 0.8349522723744609 0.06489163343528008
-1.0860860860860857 0.8392804957245692 0.06515001491942037
-1.0360360360360357 0.8436554137711891 0.06537930729727444
-0.9859859859859856 0.8480783205006068 0.06557494110275368
-0.9359359359359356 0.8525505178028336 0.06573318656189713
-0.8858858858858856 0.8570733156422994 0.06585116966096057
-0.8358358358358355 0.8616480322294839 0.06592688675032307
-0.7857857857857855 0.8662759941935085 0.0659592192351292
-0.7357357357357355 0.8709585367556854 0.06594794950253487
-0.6856856856856854 0.8756970039040721 0.06589377884189891
-0.6356356356356354 0.8804927485690286 0.06579834771664865
-0.5855855855855854 0.8853471327998024 0.06566425832780841
-0.5355355355355353 0.8902615279421637 0.06549509895027443
-0.4854854854854853 0.8952373148171018 0.06529546900390897
-0.4354354354354353 0.9002758839006122 0.0650710032243733
-0.38538538538538525 0.9053786355045863 0.06482839261204747
-0.3353353353353352 0.9105469799588193 0.06457539906112825
-0.2852852852852852 0.9157823377941738 0.06432085972393485
-0.23523523523523515 0.9210861399268946 0.06407467629506126
-0.18518518518518512 0.9264598278441063 0.06384778359182766
-0.1351351351351351 0.9319048537905277 0.06365209119396432
-0.08508508508508505 0.9374226809563828 0.06350039166997806
-0.035035035035033246 0.9430147836665823 0.06340622928493052
0.015015015015016786 0.9486826475711474 0.06338372429519326
0.06506506506506682 0.9544277698369246 0.06344735019571489
0.11511511511511685 0.9602516593406005 0.06361166469064093
0.16516516516516688 0.9661558368630441 0.06389099960750406
0.21521521521521692 0.972141835284986 0.06429912009513775
0.26526526526526695 0.9782111997840788 0.06484886856365983
0.315315315315317 0.9843651012854722 0.06554992332016184
0.365365365365367 0.9906020877836081 0.06639757701447473
0.41541541541541704 0.996919620259147 0.06738042896821649
0.4654654654654671 1.003315168005359 0.06848612641939834
0.5155155155155171 1.009786211866697 0.06970175005772265
0.5655655655655671 1.0163302438240438 0.07101413930093892
0.6156156156156172 1.0229447665812057 0.07241016622448879
0.6656656656656672 1.0296272931526051 0.07387695530209981
0.7157157157157172 1.0363753464521357 0.07540205081908181
0.7657657657657673 1.0431864588831015 0.07697353695187549
0.8158158158158173 1.0500581719292288 0.07858011721286522
0.8658658658658673 1.0569880357466814 0.08021116053862891
0.9159159159159174 1.063973608757035 0.08185672109364285
0.9659659659659674 1.0710124572411692 0.08350753817912464
1.0160160160160174 1.0781021549340213 0.08515502172126516
1.0660660660660675 1.0852402826201664 0.08679122783657013
1.1161161161161175 1.0924244277301607 0.08840882804114587
1.1661661661661675 1.0996521839376208 0.0900010748445387
1.2162162162162176 1.1069211507569754 0.0915617657702447
1.2662662662662676 1.1142289331418442 0.09308520727678411
1.3163163163163176 1.1215731410840137 0.09456617960465397
1.3663663663663677 1.1289513892129388 0.095999903229628
1.4164164164164177 1.1363612963957415 0.09738200734427097
1.4664664664664677 1.143800485337658 0.09870850059998594
1.5165165165165178 1.1512665821828743 0.09997574420667937
1.5665665665665678 1.158757216115722 0.10118042739344854
1.6166166166166178 1.1662700189621737 0.10231954517129382
1.6666666666666679 1.1738026247916025 0.10339037829962226
1.7167167167167179 1.1813526695187415 0.10439047533579454
1.766766766766768 1.1889177905058286 0.10531763663648283
1.816816816816818 1.196495626164847 0.10616990017746476
1.866866866866868 1.204083815559864 0.10694552906194849
1.916916916916918 1.2116799980093667 0.10764300059479481
1.966966966966968 1.2192818126886047 0.10826099680956235
2.017017017017018 1.2268868982318508 0.10879839634617922
2.067067067067068 1.23449289233455 0.10925426758862905
2.117117117117118 1.242097431355316 0.10962786298388105
2.167167167167168 1.2496981499177104 0.10991861447494028
