Phase uvw1-uvv uvw1-uvvErr
-15.0 2.1432966008011376 0.06876632956287115
-14.94994994994995 2.1386360251980725 0.06740196021474454
-14.8998998998999 2.1337849178196335 0.06604955918055372
-14.84984984984985 2.1287365193184526 0.06471384180527863
-14.7997997997998 2.1234840443407683 0.06340015151451818
-14.74974974974975 2.118020680535158 0.062114431496184314
-14.6996996996997 2.1123395875582047 0.06086317971955227
-14.64964964964965 2.1064338960772964 0.059653383066622025
-14.5995995995996 2.1002967067702385 0.058492426039658645
-14.54954954954955 2.0939210893215807 0.0573879695209652
-14.4994994994995 2.0873000814157527 0.056347795561214054
-14.44944944944945 2.080426800893297 0.055379491688600783
-14.3993993993994 2.073299602091891 0.054484604727258794
-14.34934934934935 2.0659242031775036 0.053656260595408664
-14.2992992992993 2.0583068430642917 0.052886810698876276
-14.24924924924925 2.0504537283292783 0.0521686421798605
-14.1991991991992 2.0423710341883115 0.05149437183624307
-14.14914914914915 2.034064905468463 0.05085702396596029
-14.0990990990991 2.0255414575773485 0.05025018864643295
-14.04904904904905 2.0168067774691543 0.04966815826177096
-13.998998998999 2.0078669246076273 0.04910604119069915
-13.94894894894895 1.9987279319262128 0.048559852367268265
-13.8988988988989 1.989395806785145 0.0480265808763487
-13.84884884884885 1.9798765319262244 0.0475042348433724
-13.7987987987988 1.970176066424544 0.046991863652846355
-13.74874874874875 1.9603003466379554 0.04648955703868137
-13.6986986986987 1.9502552871541332 0.04599841990655602
-13.64864864864865 1.9400467817352562 0.045520520967446486
-13.598598598598599 1.9296807042606843 0.04505881249441333
-13.548548548548549 1.9191629096672904 0.04461701789573419
-13.498498498498499 1.9084992348882373 0.04419948348049907
-13.448448448448449 1.8976957422571323 0.04381083388551247
-13.398398398398399 1.8867673384691002 0.043450184905617716
-13.348348348348349 1.8757401095773445 0.0431096178830272
-13.298298298298299 1.8646408488253008 0.042781188383347386
-13.248248248248249 1.853496343734109 0.04245762292886692
-13.198198198198199 1.8423333801912682 0.04213251689430472
-13.148148148148149 1.831178746539757 0.041800499720605226
-13.098098098098099 1.820059237667278 0.04145737060163384
-13.048048048048049 1.8090016590966385 0.041100208272203564
-12.997997997997999 1.7980328310773799 0.040727458282868945
-12.947947947947949 1.7871795926794234 0.04033900027953087
-12.897897897897899 1.7764688058888765 0.03993619640179476
-12.847847847847849 1.7659273597068377 0.03952192004513317
-12.797797797797799 1.7555821742512818 0.03910056196483373
-12.747747747747749 1.745460204862661 0.03867800812250064
-12.697697697697699 1.7355884462138653 0.03826158094267812
-12.647647647647648 1.7259939364246697 0.037859933034839206
-12.597597597597598 1.7167037611813902 0.03748288040146659
-12.547547547547548 1.7077450578620001 0.0371411613696577
-12.497497497497498 1.6991450196674633 0.03684610880923326
-12.447447447447448 1.6909298989688089 0.0366089070978484
-12.397397397397398 1.683096625211396 0.03643104413321542
-12.347347347347348 1.6756087595192901 0.03630298032380444
-12.297297297297296 1.6684281071293028 0.03621472820269973
-12.247247247247246 1.6615165256871243 0.03615690677949808
-12.197197197197196 1.654835919555134 0.036121142781618834
-12.147147147147146 1.64834823412559 0.036100397075025735
-12.097097097097096 1.6420154501386874 0.03608921963234324
-12.047047047047046 1.6357995780048191 0.03608393948010742
-11.996996996996996 1.6296626521304822 0.03608279666492418
-11.946946946946946 1.6235667252471102 0.0360860219204751
-11.896896896896896 1.6174738627422136 0.03609586698708664
-11.846846846846846 1.6113461369921516 0.03611658503233957
-11.796796796796796 1.605145621695955 0.036154356943286226
-11.746746746746746 1.5988343862096044 0.036217156041358056
-11.696696696696696 1.5923744898799916 0.03631454172739746
-11.646646646646646 1.5857279763780574 0.03645737249839303
-11.596596596596596 1.5788568680303192 0.03665743147835257
-11.546546546546546 1.5717231601483888 0.03692696362588175
-11.496496496496496 1.5642888153555972 0.037278133089622065
-11.446446446446446 1.5565167250698422 0.037721921873985126
-11.396396396396396 1.5483929974754616 0.038256077128947
-11.346346346346346 1.5399275341838758 0.038864880560095204
-11.296296296296296 1.5311312753168216 0.039531530480971584
-11.246246246246246 1.5220151182776944 0.04023929892624748
-11.196196196196196 1.5125899194390278 0.04097198883984959
-11.146146146146146 1.5028664958257543 0.04171425796337673
-11.096096096096096 1.4928556267942326 0.04245182829277256
-11.046046046046046 1.4825680557073304 0.04317160436463323
-10.995995995995996 1.472014491605742 0.043861723504105145
-10.945945945945946 1.4612056108755644 0.04451155846449692
-10.895895895895896 1.450152058912662 0.04511168912571277
-10.845845845845846 1.4388644517837306 0.045653856066004125
-10.795795795795796 1.4273533778843173 0.04613090539863866
-10.745745745745745 1.4156293995939797 0.046536731475756155
-10.695695695695695 1.4037030549288203 0.04686622192440472
-10.645645645645645 1.3915848591917572 0.04711520792142385
-10.595595595595595 1.3792853066200848 0.04728042152693414
-10.545545545545545 1.3668148720314597 0.047359461173437804
-10.495495495495495 1.3541840124675288 0.04735076595300334
-10.445445445445445 1.3414031688361745 0.04725359908182921
-10.395395395395395 1.3284827675521504 0.047068040788080905
-10.345345345345345 1.315433222176304 0.046794990816969875
-10.295295295295295 1.302264935053818 0.04643618073662671
-10.245245245245245 1.2889882989512187 0.04599419622305198
-10.195195195195195 1.2756136986930193 0.04547250946413241
-10.145145145145145 1.2621515127973324 0.04487552170592875
-10.095095095095095 1.2486121151114893 0.04420861570964438
-10.045045045045045 1.2350058764471625 0.043478217414766714
-9.994994994994995 1.2213431662156338 0.04269186530338254
-9.944944944944945 1.207634354063186 0.04185828468928874
-9.894894894894895 1.1938898115067125 0.040987462233147254
-9.844844844844845 1.1801199135701963 0.04009071320921044
-9.794794794794795 1.166335040421552 0.03918073022994771
-9.744744744744745 1.1525455790106043 0.03827159718167586
-9.694694694694695 1.1387619247081253 0.037378746195614515
-9.644644644644643 1.1249944829460836 0.03651882922287067
-9.594594594594593 1.1112536708595804 0.035709470637653555
-9.544544544544543 1.0975499189301536 0.03496886574928696
-9.494494494494493 1.0838936726312247 0.03431519565736988
-9.444444444444443 1.0702953046481283 0.033765039238064176
-9.394394394394393 1.0567635659728416 0.033318562917325115
-9.344344344344343 1.0433057900839535 0.03296131162312872
-9.294294294294293 1.0299292826573718 0.03267748497147159
-9.244244244244243 1.0166413713892637 0.03245118954216844
-9.194194194194193 1.0034494071728353 0.03226716611385393
-9.144144144144143 0.9903607652781559 0.03211139830767196
-9.094094094094093 0.9773828465353502 0.03197159151346487
-9.044044044044043 0.9645230785206897 0.031837527385589245
-8.993993993993993 0.951788916746414 0.03170130914580827
-8.943943943943943 0.9391878458538669 0.031557516627358825
-8.893893893893893 0.9267273808103496 0.03140328873053873
-8.843843843843842 0.9144150681097911 0.031238346303971553
-8.793793793793792 0.9022584869774213 0.03106496179337184
-8.743743743743742 0.8902652505784601 0.030887874374827175
-8.693693693693692 0.8784430072309717 0.030714141584108606
-8.643643643643642 0.8667994416232836 0.030552911579834096
-8.593593593593592 0.8553422760356475 0.03041509534101737
-8.543543543543542 0.8440792715667285 0.030312916925338333
-8.493493493493492 0.8330182293648121 0.030259324313830126
-8.443443443443442 0.8221669135506864 0.030266326735038363
-8.393393393393392 0.8115319138965424 0.030330775465909638
-8.343343343343342 0.8011189034074504 0.030437510494002767
-8.293293293293292 0.790933573463318 0.030571203541600804
-8.243243243243242 0.7809816608379285 0.030717356975005022
-8.193193193193192 0.7712689486186561 0.030862831771302248
-8.143143143143142 0.7618012671319412 0.030996228726247868
-8.093093093093092 0.7525844948743923 0.03110814805568086
-8.043043043043042 0.7436245594498785 0.03119135561107528
-7.992992992992993 0.734927438512448 0.031240881823958653
-7.942942942942943 0.7264991607154072 0.03125407443056649
-7.892892892892893 0.7183458066664996 0.031230619604584262
-7.842842842842843 0.710473509889519 0.031172539256614902
-7.792792792792793 0.7028884577921857 0.031084165337651362
-7.742742742742743 0.6955968926405709 0.030972085122525028
-7.692692692692693 0.6886051125401464 0.030845044728459427
-7.642642642642643 0.6819194724236914 0.03071379184002634
-7.592592592592593 0.6755463850457288 0.030590833505967942
-7.5425425425425425 0.6694923219843161 0.03049008229618775
-7.492492492492492 0.663763814649657 0.03042636600448049
-7.442442442442442 0.6583667923214072 0.030413648980993753
-7.3923923923923915 0.6532984326797986 0.030450434472038282
-7.3423423423423415 0.64854971522047 0.030524340487563414
-7.2922922922922915 0.6441115460839568 0.030623430337418017
-7.2422422422422414 0.6399748901213882 0.030737218011660926
-7.192192192192191 0.6361307695616403 0.030857321941217205
-7.142142142142141 0.6325702626852716 0.030978009739653648
-7.092092092092091 0.6292845025054326 0.031096654177066523
-7.042042042042041 0.6262646754550487 0.03121411923584877
-6.991991991991991 0.6235020200807724 0.03133508716137601
-6.941941941941941 0.6209878257432222 0.03146832419782273
-6.891891891891891 0.6187134313233371 0.0316268654114545
-6.841841841841841 0.6166702239347521 0.03182807940969224
-6.791791791791791 0.6148496376422243 0.03209355514632201
-6.741741741741741 0.6132431521855337 0.032448741162992
-6.691691691691691 0.611842291709324 0.03292227104360189
-6.641641641641641 0.6106386234981307 0.03354493678974483
-6.591591591591591 0.6096237567168798 0.03434832924363791
-6.541541541541541 0.608789341156553 0.03536324523348697
-6.491491491491491 0.6081270659848754 0.03661804250146651
-6.441441441441441 0.6076289307543354 0.03813550732331481
-6.391391391391391 0.607290093292645 0.03991458676560409
-6.341341341341341 0.6071077408761254 0.0419381307816099
-6.291291291291291 0.607079128879247 0.04418663701765486
-6.241241241241241 0.607201548052577 0.0466399309965353
-6.191191191191191 0.6074723241160114 0.04927823269748614
-6.141141141141141 0.6078888173559718 0.05208283662887894
-6.091091091091091 0.6084484222272031 0.05503648251984672
-6.041041041041041 0.6091485669587811 0.05812350401647694
-5.990990990990991 0.609986713164369 0.061329832432488546
-5.940940940940941 0.6109603554568621 0.06464291480333656
-5.890890890890891 0.6120670210668897 0.06805158773643426
-5.8408408408408405 0.6133042694658477 0.0715459340095954
-5.7907907907907905 0.6146696919927854 0.07511713820467046
-5.7407407407407405 0.6161609114852964 0.0787573504047394
-5.6906906906906904 0.6177755819146262 0.08245956232479952
-5.64064064064064 0.6195113880246246 0.08621749741585456
-5.59059059059059 0.6213660449745873 0.09002551486380676
-5.54054054054054 0.623337297986017 0.09387852655522644
-5.49049049049049 0.6254229219934095 0.09777192569960472
-5.44044044044044 0.6276207212984963 0.10170152568697689
-5.39039039039039 0.629928529228573 0.1056635077974758
-5.34034034034034 0.6323442077983947 0.10965437649138308
-5.29029029029029 0.6348656473758232 0.1136709211502035
-5.24024024024024 0.6374907663510263 0.1177101832869238
-5.19019019019019 0.640217510809451 0.12176942838404482
-5.14014014014014 0.643043854208313 0.1258461216447177
-5.09009009009009 0.6459677970564512 0.12993790705385735
-5.04004004004004 0.6489873665980403 0.13404258924189547
-4.98998998998999 0.6521006164994652 0.13815811772540104
-4.93993993993994 0.6553056265396839 0.14228257316750126
-4.88988988988989 0.6586005023041337 0.146414155358598
-4.83983983983984 0.6619833748818507 0.15055117266602555
-4.78978978978979 0.6654524005659339 0.15469203274137985
-4.73973973973974 0.6690057605574018 0.15883523430766777
-4.68968968968969 0.6726416606721677 0.1629793598762846
-4.63963963963964 0.6763583310512984 0.1671230692669753
-4.58958958958959 0.6801540258745375 0.17126509382335425
-4.53953953953954 0.6840270230768559 0.17540423123270957
-4.48948948948949 0.6879756240682062 0.1795393408723503
-4.43943943943944 0.6919981534563227 0.18366933961614335
-4.38938938938939 0.6960929587726858 0.18779319804441805
-4.33933933933934 0.7002584102012874 0.1919099370084752
-4.289289289289288 0.7044929003107412 0.19601862450769494
-4.239239239239238 0.7087948437889806 0.2001183728430514
-4.189189189189188 0.713162677181145 0.20420833601565458
-4.139139139139138 0.7175948586303593 0.20828770734314986
-4.089089089089088 0.7220898676211447 0.2123557172702683
-4.039039039039038 0.7266462047260425 0.21641163135294847
-3.9889889889889876 0.7312623913547678 0.22045474839793788
-3.9389389389389375 0.7359369695061999 0.22448439874209028
-3.8888888888888875 0.7406685015232983 0.2284999426574369
-3.8388388388388375 0.7454555698505305 0.23250076886980428
-3.7887887887887874 0.7502967767940851 0.23648629318016193
-3.7387387387387374 0.7551907442847852 0.24045595717911772
-3.6886886886886874 0.7601361136436569 0.24440922704610327
-3.6386386386386373 0.7651315453500209 0.2483455924256464
-3.5885885885885873 0.7701757188122342 0.2522645653740814
-3.5385385385385373 0.7752673321410302 0.25616567937060547
-3.4884884884884872 0.78040510192533 0.2600484883873645
-3.438438438438437 0.7855877630106121 0.2639125660137242
-3.388388388388387 0.7908140682796652 0.26775750463038783
-3.338338338338337 0.7960827884360202 0.2715829146294655
-3.288288288288287 0.8013927117895032 0.2753884236769728
-3.238238238238237 0.8067426440444634 0.27917367601457443
-3.188188188188187 0.8121314080902642 0.2829383317976868
-3.138138138138137 0.8175578437941513 0.2866820664673221
-3.088088088088087 0.823020807796421 0.290404570153304
-3.038038038038037 0.8285191733079205 0.2941055471066869
-2.987987987987987 0.8340518299098814 0.29778471515938065
-2.937937937937937 0.8396176833559639 0.30144180520922
-2.887887887887887 0.8452156553764918 0.30507656072878125
-2.837837837837837 0.8508446834850196 0.3086887372964619
-2.787787787787787 0.856503720786939 0.3122781021484145
-2.7377377377377368 0.8621917357904567 0.31584443375007465
-2.6876876876876867 0.8679077122194854 0.31938752138608073
-2.6376376376376367 0.87365064882886 0.3229071647675245
-2.5875875875875867 0.8794195592214744 0.32640317365550786
-2.5375375375375366 0.8852134716677091 0.3298753675001007
-2.4874874874874866 0.8910314289266927 0.33332357509381555
-2.4374374374374366 0.8968724880697532 0.3367476342388241
-2.3873873873873865 0.9027357203058268 0.3401473914271656
-2.3373373373373365 0.9086202108088872 0.3435227015332527
-2.2872872872872865 0.9145250585473295 0.3468734275180524
-2.2372372372372364 0.9204493761152643 0.35019944014433557
-2.1871871871871864 0.9263922895658481 0.35350061770242597
-2.1371371371371364 0.9323529382464684 0.35677684574595686
-2.0870870870870863 0.9383304746357761 0.3600280168371197
-2.0370370370370363 0.9443240641826711 0.36325403030097225
-1.9869869869869863 0.9503328851471067 0.36645479198836717
-1.9369369369369362 0.9563561284427382 0.36963021404709817
-1.8868868868868862 0.9623929974813605 0.37278021470090433
-1.8368368368368362 0.9684427080191766 0.3759047180359586
-1.7867867867867862 0.9745044880048215 0.3790036537945235
-1.7367367367367361 0.9805775774291798 0.38207695717544915
-1.686686686686686 0.9866612281768758 0.3851245686412331
-1.636636636636636 0.9927547038795637 0.3881464337313459
-1.586586586586586 0.9988572797709288 0.3911425028815748
-1.536536536536536 1.0049682425432311 0.39411273124912527
-1.486486486486486 1.011086890205735 0.3970570785432568
-1.436436436436436 1.0172125319446628 0.39997550886121724
-1.386386386386386 1.0233444879847737 0.40286799052927946
-1.3363363363363359 1.0294820894525727 0.4057344959486669
-1.2862862862862858 1.0356246782413083 0.408575001446184
-1.2362362362362358 1.0417716068771479 0.41138948712938406
-1.1861861861861858 1.0479222383873998 0.4141779367460693
-1.1361361361361357 1.0540759461698896 0.41694033754800564
-1.0860860860860857 1.0602321138641897 0.4196766801586587
-1.0360360360360357 1.0663901352240948 0.4223869584448283
-0.9859859859859856 1.0725494139918061 0.4250711693920261
-0.9359359359359356 1.0787093637735228 0.4277293129834753
-0.8858858858858856 1.084869407916519 0.43036139208259205
-0.8358358358358355 1.0910289793876937 0.43296741231883873
-0.7857857857857855 1.0971875206535322 0.43554738197682386
-0.7357357357357355 1.1033444835615458 0.43810131188854035
-0.6856856856856854 1.1094993292230622 0.4406292153286451
-0.6356356356356354 1.1156515278975028 0.44313110791265403
-0.5855855855855854 1.1218005588779998 0.44560700749799076
-0.5355355355355353 1.1279459103783558 0.4480569340877579
-0.4854854854854853 1.1340870794213855 0.450480909737176
-0.4354354354354353 1.1402235717287126 0.4528789584625812
-0.38538538538538525 1.1463549016116192 0.4552511061529049
-0.3353353353353352 1.152480591863568 0.4575973804835701
-0.2852852852852852 1.1586001736537468 0.45991781083270883
-0.23523523523523515 1.1647131864220124 0.46221242819964703
-0.18518518518518512 1.1708191777751504 0.4644812651255659
-0.1351351351351351 1.176917703384324 0.4667243556163055
-0.08508508508508505 1.18300832688382 0.4689417350672042
-0.035035035035033246 1.1890906197709952 0.4711334401899561
0.015015015015016786 1.195164161307527 0.47329950894138706
0.06506506506506682 1.2012285384217516 0.47543998045412617
0.11511511511511685 1.2072833456123493 0.4775548949690926
0.16516516516516688 1.2133281848530966 0.4796442937697619
0.21521521521521692 1.2193626654988914 0.4817082191181472
0.26526526526526695 1.2253864041928444 0.48374671419245996
0.315315315315317 1.2313990247746172 0.4857598230263885
0.365365365365367 1.2374001581898795 0.48774759044996197
0.41541541541541704 1.2433894424008272 0.4897100620319481
0.4654654654654671 1.249366522297954 0.49164728402374197
0.5155155155155171 1.2553310496127756 0.49355930330470904
0.5655655655655671 1.2612826828317352 0.495446167328941
0.6156156156156172 1.2672210871112806 0.4973079240733853
0.6656656656656672 1.2731459341938112 0.4991446219873104
0.7157157157157172 1.279056902324855 0.5009563099430786
0.7657657657657673 1.2849536761712232 0.5027430371881794
0.8158158158158173 1.290835946740303 0.5045048532985036
0.8658658658658673 1.2967034113002067 0.5062418081328158
0.9159159159159174 1.3025557733011186 0.5079539517883997
0.9659659659659674 1.308392742297586 0.5096413345578458
1.0160160160160174 1.314214033871767 0.5113040068869489
1.0660660660660675 1.3200193695577727 0.5129420193336913
1.1161161161161175 1.3258084767668872 0.5145554225282835
1.1661661661661675 1.331581088713857 0.5161442671342373
1.2162162162162176 1.337336944344075 0.5177086038104374
1.2662662662662676 1.3430757882617033 0.5192484831742045
1.3163163163163176 1.3487973706588758 0.5207639557653077
1.3663663663663677 1.3545014472456454 0.5222550720109103
1.4164164164164177 1.3601877791809982 0.5237218821914379
1.4664664664664677 1.3658561330047525 0.5251644364073192
1.5165165165165178 1.3715062805703204 0.5265827845466139
1.5665665665665678 1.3771379989784198 0.5279769762534787
1.6166166166166178 1.3827510705116892 0.5293470608974635
1.6666666666666679 1.388345282570087 0.5306930875436247
1.7167167167167179 1.3939204276073442 0.532015104923421
1.766766766766768 1.3994763030680484 0.5333131614063935
1.816816816816818 1.4050127113258468 0.5345873049725941
1.866866866866868 1.4105294596222389 0.535837583185759
1.916916916916918 1.4160263600064433 0.5370640431672054
1.966966966966968 1.4215032292759076 0.5382667315704365
2.017017017017018 1.4269598889177826 0.5394456945564383
2.067067067067068 1.4323961650511525 0.540600977769659
2.117117117117118 1.4378118883700597 0.5417326263146475
2.167167167167168 1.443206894087377 0.542840684733346
