Phase uvw1-uvv uvw1-uvvErr
-15.0 2.0780243589125345 0.15469290189221818
-14.94994994994995 2.0776052236376366 0.15552424473661278
-14.8998998998999 2.0771492680741535 0.15632666536651704
-14.84984984984985 2.0766560113581356 0.15709719090962584
-14.7997997997998 2.0761249667021144 0.15783303657255654
-14.74974974974975 2.0755556413247116 0.15853159743390488
-14.6996996996997 2.074947536379582 0.1591904404186804
-14.64964964964965 2.0743001468836453 0.15980729651340933
-14.5995995995996 2.073612961644624 0.16038005326704602
-14.54954954954955 2.0728854631878653 0.16090674761098
-14.4994994994995 2.072117127682444 0.16138555902161764
-14.44944944944945 2.071307424866543 0.16181480304092005
-14.3993993993994 2.0704558179720864 0.1621929251638419
-14.34934934934935 2.069561763648643 0.16251849509636407
-14.2992992992993 2.0686247118865637 0.16279020138380174
-14.24924924924925 2.0676441059393675 0.1630068464059417
-14.1991991991992 2.0666193822453494 0.1631673417332784
-14.14914914914915 2.0655499703484206 0.16327070383697734
-14.0990990990991 2.064435292818149 0.1633160501441284
-14.04904904904905 2.0632747651690138 0.1633025954292448
-13.998998998999 2.0620677957788534 0.16322964853272356
-13.94894894894895 2.060813785806494 0.16309660939706466
-13.8988988988989 2.0595121291085605 0.16290296641200785
-13.84884884884885 2.058162212155457 0.16264829406023673
-13.7987987987988 2.0567634139465003 0.16233225085609645
-13.74874874874875 2.0553151059242083 0.16195457757055953
-13.6986986986987 2.053816651887729 0.1615150957367046
-13.64864864864865 2.0522674079053917 0.16101370643103605
-13.598598598598599 2.050666722226394 0.16045038932713862
-13.548548548548549 2.049013935191585 0.15982520201943262
-13.498498498498499 2.0473083791433626 0.1591382796160854
-13.448448448448449 2.0455493783346563 0.15838983460155695
-13.398398398398399 2.043736248836993 0.15758015697069183
-13.348348348348349 2.0418682984476377 0.15670961463780536
-13.298298298298299 2.039944826595791 0.1557786541258109
-13.248248248248249 2.0379651242478474 0.15478780154207425
-13.198198198198199 2.0359284738116843 0.15373766384944804
-13.148148148148149 2.0338341490399876 0.1526289304427194
-13.098098098098099 2.031681414932604 0.1514623750425939
-13.048048048048049 2.0294695276378913 0.15023885792127895
-12.997997997997999 2.027197734353073 0.1489593284757335
-12.947947947947949 2.024865273223593 0.14762482816670197
-12.897897897897899 2.0224713732414252 0.1462364938437443
-12.847847847847849 2.020015254142372 0.14479556147853487
-12.797797797797799 2.0174961263023046 0.14330337033072568
-12.747747747747749 2.0149131906323556 0.14176136757264654
-12.697697697697699 2.012265638473039 0.14017111340079727
-12.647647647647648 2.009552651487298 0.13853428666357434
-12.597597597597598 2.0067734015524574 0.13685269103567618
-12.547547547547548 2.003927050651079 0.1351282617699881
-12.497497497497498 2.0010127507607045 0.1333630730572635
-12.447447447447448 1.998029643742468 0.13155934602221708
-12.397397397397398 1.9949768612285763 0.12971945738130855
-12.347347347347348 1.9918535245086402 0.1278459487820711
-12.297297297297296 1.988658744414846 0.12594153683564982
-12.247247247247246 1.9853916212059501 0.12400912384236071
-12.197197197197196 1.9820512444500864 0.12205180919374338
-12.147147147147146 1.9786366929063837 0.12007290141240681
-12.097097097097096 1.975147034405365 0.11807593076152503
-12.047047047047046 1.9715813257281247 0.11606466231748652
-11.996996996996996 1.9679386124842702 0.11404310934993502
-11.946946946946946 1.9642179289886141 0.11201554679088917
-11.896896896896896 1.9604182981366025 0.10998652449679075
-11.846846846846846 1.9565387312784677 0.10796087991125206
-11.796796796796796 1.9525782280920916 0.10594374962016166
-11.746746746746746 1.948535776454567 0.1039405791526982
-11.696696696696696 1.94441035231244 0.10195713022094828
-11.646646646646646 1.940200919550627 0.09999948440867351
-11.596596596596596 1.9359064298599804 0.09807404211959662
-11.546546546546546 1.9315258226035 0.09618751538576668
-11.496496496496496 1.9270580246811733 0.09434691292962342
-11.446446446446446 1.922501950393426 0.092559515689684
-11.396396396396396 1.9178565013031728 0.090832840886719
-11.346346346346346 1.9131205660964512 0.08917459266160979
-11.296296296296296 1.9082930204416244 0.08759259740179606
-11.246246246246246 1.9033727268471414 0.0860947221396024
-11.196196196196196 1.8983585345178358 0.0846887749013962
-11.146146146146146 1.893249279209742 0.08338238665043855
-11.096096096096096 1.8880437830834325 0.08218287551512911
-11.046046046046046 1.8827409091858711 0.08109695674719572
-10.995995995995996 1.8773416471024118 0.08012530071367062
-10.945945945945946 1.8718497628768511 0.07926084316993244
-10.895895895895896 1.866269196888882 0.07849548937988945
-10.845845845845846 1.8606038770315516 0.07782072328278826
-10.795795795795796 1.8548577193331426 0.07722774499306741
-10.745745745745745 1.8490346285777552 0.07670760734716171
-10.695695695695695 1.8431384989246535 0.0762513473811447
-10.645645645645645 1.8371732145264525 0.07585010934861175
-10.595595595595595 1.8311426501462047 0.07549525674435849
-10.545545545545545 1.8250506717734778 0.07517847169002805
-10.495495495495495 1.8189011372394752 0.0748918408820633
-10.445445445445445 1.812697896831273 0.07462792804017057
-10.395395395395395 1.8064447939052646 0.07437983339073104
-10.345345345345345 1.8001456654998484 0.0741412411602583
-10.295295295295295 1.7938043429474546 0.07390645634250739
-10.245245245245245 1.7874246524859798 0.07367043215494669
-10.195195195195195 1.781010415869686 0.07342878963773812
-10.145145145145145 1.7745654509796458 0.0731778307954281
-10.095095095095095 1.7680935724338034 0.07291454656138914
-10.045045045045045 1.761598592196712 0.07263662069736247
-9.994994994994995 1.7550843201890278 0.07234243054164514
-9.944944944944945 1.7485545648968328 0.07203104530077972
-9.894894894894895 1.7420131339808407 0.07170222234909346
-9.844844844844845 1.7354638348855729 0.07135640176282551
-9.794794794794795 1.7289104754485658 0.07099469907309594
-9.744744744744745 1.7223568645096852 0.07061889597584675
-9.694694694694695 1.7158068125206047 0.07023142848823646
-9.644644644644643 1.7092641321545408 0.06983537179167479
-9.594594594594593 1.7027326389162918 0.06943442075606854
-9.544544544544543 1.6962161517526653 0.06903286490568655
-9.494494494494493 1.689718493663357 0.06863555637655715
-9.444444444444443 1.6832434923123567 0.06824786924654627
-9.394394394394393 1.6767949806399485 0.06787564851610614
-9.344344344344343 1.6703767974753765 0.0675251470097937
-9.294294294294293 1.66399278815024 0.06720294858971416
-9.244244244244243 1.657646805112706 0.06691587635593407
-9.194194194194193 1.651342708542587 0.06667088498493991
-9.144144144144143 1.6450843669673747 0.06647493704133028
-9.094094094094093 1.638875657879285 0.0663348639854631
-9.044044044044043 1.6327202960680252 0.06625645326093808
-8.993993993993993 1.6266202180080485 0.06623718516130564
-8.943943943943943 1.6205763110586853 0.06626948994484638
-8.893893893893893 1.6145894593782675 0.06634551483988657
-8.843843843843842 1.6086605579620574 0.06645733236387287
-8.793793793793792 1.60279051281058 0.0665970725154163
-8.743743743743742 1.5969802410992753 0.06675703856903044
-8.693693693693692 1.5912306713495077 0.0669298060175683
-8.643643643643642 1.585542743600936 0.0671083050839374
-8.593593593593592 1.5799174095852728 0.06728588788343051
-8.543543543543542 1.5743556329014585 0.06745638176301066
-8.493493493493492 1.5688583891922585 0.0676141305969353
-8.443443443443442 1.563426666322313 0.06775402591275936
-8.393393393393392 1.5580614645576658 0.06787152969528447
-8.343343343343342 1.5527637967467758 0.06796269060362521
-8.293293293293292 1.5475346885030548 0.06802415516877652
-8.243243243243242 1.5423751783889375 0.06805317533990092
-8.193193193193192 1.5372863181015088 0.06804761353426464
-8.143143143143142 1.5322691726597144 0.06800594613003928
-8.093093093093092 1.527324820593178 0.06792726612885099
-8.043043043043042 1.522454354132636 0.06781128550880666
-7.992992992992993 1.5176588794020294 0.0676583375871879
-7.942942942942943 1.5129395166122603 0.06746937951262964
-7.892892892892893 1.5082974002566412 0.0672459948044515
-7.842842842842843 1.5037336793080716 0.06699039564716314
-7.792792792792793 1.4992495174179425 0.06670542442580189
-7.742742742742743 1.4948460931168057 0.06639455374875361
-7.692692692692693 1.4905246000168408 0.06606188394707167
-7.642642642642643 1.486286247016121 0.06571213676393214
-7.592592592592593 1.4821322585047194 0.06535064366094552
-7.5425425425425425 1.478063874572672 0.06498332688169528
-7.492492492492492 1.4740823512198278 0.06461667114800579
-7.442442442442442 1.4701889605676013 0.06425768365173147
-7.3923923923923915 1.4663849910726623 0.063913839885693
-7.3423423423423415 1.4626717477425821 0.06359301288350773
-7.2922922922922915 1.4590505523534558 0.06330338366746645
-7.2422422422422414 1.455522743669544 0.06305333119456717
-7.192192192192191 1.45208967766494 0.06285130089011282
-7.142142142142141 1.4487527277472987 0.06270565198664295
-7.092092092092091 1.445513284983649 0.06262448532125936
-7.042042042042041 1.4423722292430399 0.06261316400800991
-6.991991991991991 1.4393281988620896 0.06266669851989487
-6.941941941941941 1.4363792469469736 0.06277703253398992
-6.891891891891891 1.4335234441734874 0.06293584365817521
-6.841841841841841 1.4307588785195906 0.06313471852120242
-6.791791791791791 1.4280836549941585 0.0633653095122148
-6.741741741741741 1.4254958953677725 0.06361947121726408
-6.691691691691691 1.422993737905532 0.06388937603153891
-6.641641641641641 1.420575337101845 0.0641676096029506
-6.591591591591591 1.4182388634171796 0.06444724762423372
-6.541541541541541 1.4159825030167363 0.06472191604599563
-6.491491491491491 1.4138044575110271 0.06498583707121917
-6.441441441441441 1.4117029436983102 0.0652338633653571
-6.391391391391391 1.4096761933088828 0.06546150283218305
-6.341341341341341 1.4077224527511667 0.06566493611434406
-6.291291291291291 1.4058399828595962 0.06584102872198104
-6.241241241241241 1.4040270586442452 0.06598733940420695
-6.191191191191191 1.4022819690421957 0.06610212607855147
-6.141141141141141 1.4006030166706003 0.06618435033559134
-6.091091091091091 1.3989885175814158 0.0662336812459828
-6.041041041041041 1.3974368010177907 0.0662504989156336
-5.990990990990991 1.3959462091720614 0.06623589795923442
-5.940940940940941 1.3945150969453461 0.06619169078787145
-5.890890890890891 1.3931418317087063 0.06612041032737749
-5.8408408408408405 1.3918247930658363 0.06602531149558855
-5.7907907907907905 1.3905623726172798 0.06591037046562097
-5.7407407407407405 1.3893529737261088 0.06578028042919212
-5.6906906906906904 1.388195011285096 0.06564044225454127
-5.64064064064064 1.3870869114852853 0.06549694812053558
-5.59059059059059 1.3860271115859923 0.06535655592393448
-5.54054054054054 1.3850140596861804 0.0652266520331513
-5.49049049049049 1.3840462144971917 0.0651151998428154
-5.44044044044044 1.3831220451168122 0.06503067162300423
-5.39039039039039 1.3822400308046396 0.06498196141451026
-5.34034034034034 1.3813986607587352 0.06497827725576975
-5.29029029029029 1.3805964338935253 0.0650290118814898
-5.24024024024024 1.3798318586189422 0.06514359222411144
-5.19019019019019 1.3791034526207668 0.0653313095451136
-5.14014014014014 1.3784097426421482 0.06560113373334635
-5.09009009009009 1.3777492676806127 0.06596147284323697
-5.04004004004004 1.3771209577348738 0.0664150746256175
-4.98998998998999 1.3765244779108397 0.0669545197659205
-4.93993993993994 1.3759595830305216 0.06757075226216286
-4.88988988988989 1.3754260363029525 0.06825434132686274
-4.83983983983984 1.3749236092917791 0.06899567105833802
-4.78978978978979 1.3744520818839496 0.0697851061479913
-4.73973973973974 1.3740112422594652 0.0706131317001401
-4.68968968968969 1.3736008868621985 0.07147046711441948
-4.63963963963964 1.3732208203718028 0.0723481553945015
-4.58958958958959 1.372870855676661 0.07323763019416231
-4.53953953953954 1.3725508138479137 0.07413076344330823
-4.48948948948949 1.3722605241145405 0.07501989659366594
-4.43943943943944 1.3719998238395057 0.07589785847527446
-4.38938938938939 1.371768558496944 0.07675797254397503
-4.33933933933934 1.3715665816504155 0.07759405599623208
-4.289289289289288 1.3713937549321968 0.07840041288343261
-4.239239239239238 1.3712499480236309 0.07917182301074537
-4.189189189189188 1.3711350386365067 0.07990352807927377
-4.139139139139138 1.371048912495503 0.08059121623800204
-4.089089089089088 1.370991463321651 0.08123100595985523
-4.039039039039038 1.370962592816853 0.08181942994461891
-3.9889889889889876 1.3709622106494317 0.08235341957863083
-3.9389389389389375 1.3709902344407143 0.08283029034257816
-3.8888888888888875 1.3710465897526538 0.08324772845026793
-3.8388388388388375 1.371131210076484 0.08360377891762646
-3.7887887887887874 1.3712440368224037 0.08389683519831735
-3.7387387387387374 1.371385019310292 0.0841256304759688
-3.6886886886886874 1.3715541147614556 0.0842892306694767
-3.6386386386386373 1.3717512882914003 0.08438702918446954
-3.5885885885885873 1.3719765129036365 0.08441874342770726
-3.5385385385385373 1.3722297694845043 0.08438441309017326
-3.4884884884884872 1.3725110467990311 0.0842844001965778
-3.438438438438437 1.372820341487811 0.08411939091240334
-3.388388388388387 1.3731576580649154 0.08389039909267701
-3.338338338338337 1.3735230089168162 0.0835987715476679
-3.288288288288287 1.373916414302352 0.08324619498813876
-3.238238238238237 1.3743379023537046 0.08283470459428414
-3.188188188188187 1.3747875090784043 0.08236669412646347
-3.138138138138137 1.3752652783623662 0.08184492745918506
-3.088088088088087 1.3757712619739437 0.08127255137022008
-3.038038038038037 1.3763055195690104 0.08065310935047312
-2.987987987987987 1.376868118697072 0.0799905561141737
-2.937937937937937 1.3774591348083993 0.07928927237876059
-2.887887887887887 1.3780786512621925 0.07855407934603212
-2.837837837837837 1.3787267593357706 0.07779025214705794
-2.787787787787787 1.3794035582347932 0.07700353131056467
-2.7377377377377368 1.380109155104512 0.07620013107798236
-2.6876876876876867 1.38084366504205 0.07538674312063902
-2.6376376376376367 1.3816072111097166 0.0745705339244102
-2.5875875875875867 1.3823999243493579 0.0737591338096005
-2.5375375375375366 1.3832219437977364 0.0729606152742784
-2.4874874874874866 1.3840734165029565 0.07218345812419774
-2.4374374374374366 1.3849544975419177 0.07143649873178455
-2.3873873873873865 1.3858653500388196 0.07072886081210873
-2.3373373373373365 1.3868061451846985 0.07006986538578079
-2.2872872872872865 1.3877770622580197 0.06946891818809556
-2.2372372372372364 1.3887782886463045 0.06893537373757626
-2.1871871871871864 1.3898100198688108 0.06847837662105515
-2.1371371371371364 1.3908724596002735 0.06810668225805983
-2.0870870870870863 1.3919658045533279 0.06782760360507996
-2.0370370370370363 1.3930901019773683 0.06763877106992387
-1.9869869869869863 1.3942453136975952 0.06753180038696774
-1.9369369369369362 1.3954314084977324 0.06749770896852694
-1.8868868868868862 1.3966483633429498 0.06752717324694671
-1.8368368368368362 1.397896163369702 0.06761070553737944
-1.7867867867867862 1.3991748018766241 0.06773881544544688
-1.7367367367367361 1.4004842803164752 0.06790215256733508
-1.686686686686686 1.4018246082891364 0.06809162883121404
-1.636636636636636 1.403195803535656 0.068298520221534
-1.586586586586586 1.4045978919333524 0.06851454873237067
-1.536536536536536 1.4060309074919493 0.06873194618873532
-1.486486486486486 1.4074948923507813 0.06894350207196528
-1.436436436436436 1.4089898967770242 0.06914259772975699
-1.386386386386386 1.410515979164987 0.06932322939725463
-1.3363363363363359 1.4120732060364447 0.06948002235830923
-1.2862862862862858 1.4136616520420169 0.06960823838556385
-1.2362362362362358 1.415281399963594 0.06970377835535284
-1.1861861861861858 1.416932540717809 0.0697631816690714
-1.1361361361361357 1.418615173360556 0.06978362384818597
-1.0860860860860857 1.4203294050925481 0.06976291341813952
-1.0360360360360357 1.4220753512659305 0.06969948896361704
-0.9859859859859856 1.4238531353919395 0.06959241702554363
-0.9359359359359356 1.425662889149601 0.06944139131632383
-0.8858858858858856 1.427504752395484 0.06924673355009929
-0.8358358358358355 1.4293788731745025 0.06900939601218822
-0.7857857857857855 1.431285407731758 0.06873096581947956
-0.7357357357357355 1.4332245205254475 0.06841367064285543
-0.6856856856856854 1.4351963842408089 0.0680603854656744
-0.6356356356356354 1.437201179805125 0.06767463973073276
-0.5855855855855854 1.4392390964037842 0.06726062397506874
-0.5355355355355353 1.4413103314973876 0.06682319476245496
-0.4854854854854853 1.4434150908399246 0.06636787639619436
-0.4354354354354353 1.445553588497992 0.06590085753401403
-0.38538538538538525 1.4477260468710917 0.06542898044507806
-0.3353353353353352 1.4499326967129718 0.06495972027014939
-0.2852852852852852 1.452173777154044 0.06450115130819921
-0.23523523523523515 1.4544495357248637 0.06406189711151268
-0.18518518518518512 1.456760228380674 0.06365106109945226
-0.1351351351351351 1.459106119527025 0.0632781345863375
-0.08508508508508505 1.4614871962450466 0.06295139453946587
-0.035035035035033246 1.4639022303465545 0.0626729372116907
0.015015015015016786 1.466349674449836 0.062443381007678454
0.06506506506506682 1.46882798918716 0.0622636570718812
0.11511511511511685 1.4713356429631492 0.06213508638804077
0.16516516516516688 1.4738711117105885 0.06205944302101579
0.21521521521521692 1.4764328786471899 0.062039001893666394
0.26526526526526695 1.4790194340333007 0.0620765696009366
0.315315315315317 1.481629274930517 0.062175496934273475
0.365365365365367 1.4842609049611866 0.06233967202712588
0.41541541541541704 1.486912834068755 0.06257349336493924
0.4654654654654671 1.4895835782789544 0.06288182235506434
0.5155155155155171 1.4922716594617735 0.06326991573998511
0.5655655655655671 1.4949756050942178 0.0637433388607744
0.6156156156156172 1.4976939480238003 0.06430786161368875
0.6656656656656672 1.5004252262327569 0.06496933984151256
0.7157157157157172 1.503167982602952 0.06573358578639692
0.7657657657657673 1.5059207646814472 0.06660623200605931
0.8158158158158173 1.5086821244467012 0.06759259371625259
0.8658658658658673 1.5114506184922583 0.0686975311445002
0.9159159159159174 1.5142251667972786 0.06992220381419767
0.9659659659659674 1.5170057088521742 0.07125834713002507
1.0160160160160174 1.5197923660682016 0.07269575398433603
1.0660660660660675 1.5225852636221067 0.07422404973910142
1.1161161161161175 1.5253845304592026 0.07583288116302206
1.1661661661661675 1.528190299296974 0.07751206828389917
1.2162162162162176 1.531002706629216 0.0792517211201081
1.2662662662662676 1.533821892730706 0.08104232486959563
1.3163163163163176 1.5366480016623996 0.08287479797602525
1.3663663663663677 1.5394811812771656 0.08474052773548303
1.4164164164164177 1.5423215832260446 0.08663138793725476
1.4664664664664677 1.5451693629650425 0.08853974260965873
1.5165165165165178 1.5480246797624568 0.09045843939404985
1.5665665665665678 1.5508876967067262 0.09238079548630596
1.6166166166166178 1.553758580714823 0.09430057852379106
1.6666666666666679 1.5566375025411674 0.09621198428970348
1.7167167167167179 1.5595246367870816 0.09810961267060733
1.766766766766768 1.5624201619107705 0.09998844294008527
1.816816816816818 1.565324260237842 0.10184380914778729
1.866866866866868 1.5682371179723558 0.10367137616091582
1.916916916916918 1.571158925208408 0.10546711672554528
1.966966966966968 1.5740898759422557 0.10722728977879521
2.017017017017018 1.5770301680849692 0.10894842014141311
2.067067067067068 1.5799800034756273 0.11062727964658109
2.117117117117118 1.582939587895049 0.11226086970825917
2.167167167167168 1.5859091310800637 0.11384640529639378
2.217217217217218 1.5888888467383144 0.11538130026258693
