Phase uvw1-uvv uvw1-uvvErr
-15.0 0.9569433687545835 0.40383720435059417
-14.94994994994995 0.9565670492678047 0.4019096946782652
-14.8998998998999 0.9561812247471503 0.3999661714807215
-14.84984984984985 0.955785758206333 0.3980065680361825
-14.7997997997998 0.9553805109942237 0.3960308189434212
-14.74974974974975 0.9549653427762446 0.39403886017803513
-14.6996996996997 0.9545401115155674 0.39203062915045545
-14.64964964964965 0.954104673454105 0.39000606476575467
-14.5995995995996 0.9536588830933115 0.3879651074853163
-14.54954954954955 0.953202593174768 0.3859076993904395
-14.4994994994995 0.9527356546605716 0.3838337842479396
-14.44944944944945 0.9522579167135098 0.3817433075778295
-14.3993993993994 0.9517692266770239 0.3796362167231508
-14.34934934934935 0.9512694300549663 0.37751246092204077
-14.2992992992993 0.950758370491138 0.3753719913821167
-14.24924924924925 0.9502358897486104 0.37321476135727244
-14.1991991991992 0.9497018276888309 0.37104072622697276
-14.14914914914915 0.949156022250499 0.36884984357815487
-14.0990990990991 0.9485983094282318 0.36664207328982856
-14.04904904904905 0.9480285232509884 0.3644173776204952
-13.998998998999 0.9474464957602818 0.362175721298492
-13.94894894894895 0.9468520569881463 0.35991707161538733
-13.8988988988989 0.9462450349348808 0.35764139852255156
-13.84884884884885 0.945625255546554 0.35534867473103876
-13.7987987987988 0.9449925426922727 0.3530388758149198
-13.74874874874875 0.9443467181412081 0.35071198031821804
-13.6986986986987 0.9436876015393815 0.3483679698656025
-13.64864864864865 0.9430150103862014 0.3460068292770076
-13.598598598598599 0.9423287600107655 0.3436285466863528
-13.548548548548549 0.9416286635478877 0.3412331136645538
-13.498498498498499 0.9409145319139011 0.338820525347015
-13.448448448448449 0.9401861737821838 0.3363907805658206
-13.398398398398399 0.939443395558444 0.33394388198683744
-13.348348348348349 0.9386860013557237 0.33147983625197547
-13.298298298298299 0.9379137929691639 0.3289986541268437
-13.248248248248249 0.9371265698504843 0.3265003506540757
-13.198198198198199 0.9363241290822051 0.32398494531260486
-13.148148148148149 0.9355062653515911 0.3214524621831864
-13.098098098098099 0.9346727709243265 0.3189029301204892
-13.048048048048049 0.9338234356179153 0.31633638293209687
-12.997997997997999 0.9329580467747858 0.313752859564781
-12.947947947947949 0.9320763892351417 0.3111524042984336
-12.897897897897899 0.9311782453094937 0.3085350669480735
-12.847847847847849 0.9302633947509316 0.3059009030743686
-12.797797797797799 0.9293316147270894 0.30324997420314576
-12.747747747747749 0.9283826797918179 0.300582348054397
-12.697697697697699 0.9274163618565653 0.297898098781322
-12.647647647647648 0.9264324301614533 0.2951973072199875
-12.597597597597598 0.9254306512460505 0.2924800611502309
-12.547547547547548 0.9244107889198407 0.28974645556847467
-12.497497497497498 0.9233726042323782 0.28699659297317137
-12.447447447447448 0.9223158554431385 0.2842305836636521
-12.397397397397398 0.9212402979910416 0.2814485460532164
-12.347347347347348 0.9201456844636657 0.27865060699735517
-12.297297297297296 0.9190317645661377 0.2758369021380744
-12.247247247247246 0.9178982850896862 0.2730075762653668
-12.197197197197196 0.9167449898798844 0.2701627836969569
-12.147147147147146 0.9155716198045472 0.2673026886775356
-12.097097097097096 0.9143779127212959 0.26442746579880216
-12.047047047047046 0.913163603444789 0.26153730044174534
-11.996996996996996 0.911928423713599 0.2586323892426996
-11.946946946946946 0.9106721021567563 0.25571294058485905
-11.896896896896896 0.9093943642599351 0.25277917511706477
-11.846846846846846 0.9080949323312892 0.24983132630184074
-11.796796796796796 0.9067735254669317 0.24686964099482464
-11.746746746746746 0.9054298595160492 0.24389438005792885
-11.696696696696696 0.9040636470456614 0.24090581900877475
-11.646646646646646 0.9026745973050072 0.2379042487091671
-11.596596596596596 0.9012624161895606 0.23488997609563148
-11.546546546546546 0.8998268062046635 0.23186332495531126
-11.496496496496496 0.8983674664288009 0.2288246367508169
-11.446446446446446 0.89688409247647 0.2257742714979646
-11.396396396396396 0.8953763764606728 0.2227126087006997
-11.346346346346346 0.8938440069550256 0.21964004834791143
-11.296296296296296 0.8922866689554537 0.21655701197728472
-11.246246246246246 0.8907040438415128 0.21346394381182984
-11.196196196196196 0.889095809337284 0.21036131197526806
-11.146146146146146 0.8874616394718869 0.2072496097930526
-11.096096096096096 0.8858012045395514 0.2041293571864501
-11.046046046046046 0.8841141710593035 0.2010011021678295
-10.995995995995996 0.8824002017342214 0.19786542244610417
-10.945945945945946 0.880658955410258 0.19472292715213924
-10.895895895895896 0.8788900870346525 0.1915742586948705
-10.845845845845846 0.8770932476138966 0.18842009475995078
-10.795795795795796 0.8752680841712762 0.1852611504638593
-10.745745745745745 0.8734142397039624 0.18209818067763092
-10.695695695695695 0.8715313531396621 0.17893198253574955
-10.645645645645645 0.869619059292817 0.17576339814713224
-10.595595595595595 0.8676769888203522 0.17259331752673954
-10.545545545545545 0.8657047681769636 0.16942268176796477
-10.495495495495495 0.863702019569937 0.16625248647771768
-10.445445445445445 0.8616683609135096 0.16308378549792693
-10.395395395395395 0.8596034057827477 0.15991769493907101
-10.345345345345345 0.8575067633669553 0.15675539755320506
-10.295295295295295 0.8553780384225939 0.15359814747579506
-10.245245245245245 0.8532168312257219 0.15044727536737273
-10.195195195195195 0.8510227375239348 0.14730419398747963
-10.145145145145145 0.8487953484878095 0.14417040423444627
-10.095095095095095 0.8465342506618536 0.1410475016850388
-10.045045045045045 0.8442390259149372 0.13793718366763624
-9.994994994994995 0.841909251390218 0.1348412569010311
-9.944944944944945 0.8395444994545493 0.13176164572770024
-9.894894894894895 0.837144337647364 0.1287004009649735
-9.844844844844845 0.8347083286290272 0.12565970938900295
-9.794794794794795 0.8322360301286629 0.12264190385414564
-9.744744744744745 0.8297269948914338 0.11964947403281637
-9.694694694694695 0.8271807706252847 0.11668507773687282
-9.644644644644643 0.8245968999471297 0.1137515527491538
-9.594594594594593 0.8219749203284883 0.11085192905098673
-9.544544544544543 0.81931436404056 0.1079894412755602
-9.494494494494493 0.8166147580987261 0.10516754114548245
-9.444444444444443 0.8138756242064974 0.10238990956217343
-9.394394394394393 0.8110964786988617 0.0996604679021091
-9.344344344344343 0.8082768324850578 0.0969833879370669
-9.294294294294293 0.8054161909907682 0.09436309963040543
-9.244244244244243 0.8025140540997016 0.09180429586816877
-9.194194194194193 0.7995699160945795 0.08931193296448627
-9.144144144144143 0.7965832655975235 0.0868912255412231
-9.094094094094093 0.7935535855098148 0.08454763413445872
-9.044044044044043 0.790480352951042 0.08228684364527505
-8.993993993993993 0.7873630391976265 0.08011473056051799
-8.943943943943943 0.7842011096207091 0.07803731676373027
-8.893893893893893 0.7809940236233964 0.07606070779284983
-8.843843843843842 0.7777412345773697 0.07419101364570331
-8.793793793793792 0.7744425796342482 0.07243385447390617
-8.743743743743742 0.7711024753461876 0.07078999418034633
-8.693693693693692 0.7677283166638309 0.06925694050392289
-8.643643643643642 0.7643275451341154 0.06783196119437958
-8.593593593593592 0.7609075991527134 0.06651218022512852
-8.543543543543542 0.7574759151012358 0.06529462640781127
-8.493493493493492 0.7540399284842381 0.06417628492987426
-8.443443443443442 0.7506070750661793 0.0631541503682097
-8.393393393393392 0.7471847920084268 0.06222527956125485
-8.343343343343342 0.743780519006461 0.061386842620616694
-8.293293293293292 0.7404016994274 0.06063617033689769
-8.243243243243242 0.7370557814479701 0.05997079628288381
-8.193193193193192 0.7337502191930674 0.059388492036439824
-8.143143143143142 0.7304924738750127 0.05888729412731698
-8.093093093093092 0.727290014933651 0.058465521547045464
-8.043043043043042 0.7241503211774241 0.05812178293876787
-7.992992992992993 0.721080881925524 0.05785497289427579
-7.942942942942943 0.7180891981512818 0.05766425711904681
-7.892892892892893 0.7151827836269161 0.05754904657366459
-7.842842842842843 0.7123691660697489 0.05750896105192265
-7.792792792792793 0.7096555104006028 0.057543083806315745
-7.742742742742743 0.7070468463234525 0.05764665162250363
-7.692692692692693 0.7045474602295181 0.057813690140693756
-7.642642642642643 0.702161655253555 0.05803851084599191
-7.592592592592593 0.6998937528072187 0.05831578926732969
-7.5425425425425425 0.6977480932420566 0.05864062501274526
-7.492492492492492 0.6957290365146702 0.059008585748487136
-7.442442442442442 0.6938409628541462 0.05941573614038347
-7.3923923923923915 0.6920882734318119 0.05985865310420604
-7.3423423423423415 0.6904753910334025 0.06033442887056668
-7.2922922922922915 0.6890067607337033 0.06084066339670842
-7.2422422422422414 0.6876868505737714 0.06137544759141239
-7.192192192192191 0.686520152240771 0.06193733869548831
-7.142142142142141 0.6855111817505464 0.06252532900864129
-7.092092092092091 0.6846644801329597 0.0631388089965664
-7.042042042042041 0.6839846141201272 0.06377752566574332
-6.991991991991991 0.6834761768375773 0.06444153696769536
-6.941941941941941 0.6831437884984491 0.06513116289423383
-6.891891891891891 0.6829920971007839 0.06584693385154557
-6.841841841841841 0.6830257763424694 0.06658953488152079
-6.791791791791791 0.6832474220871186 0.0673582634980228
-6.741741741741741 0.683653805393873 0.06814835413654502
-6.691691691691691 0.68424071783022 0.06895443690388309
-6.641641641641641 0.6850039794209222 0.06977129253723591
-6.591591591591591 0.6859394380164564 0.07059388579331526
-6.541541541541541 0.6870429686646209 0.0714173911567583
-6.491491491491491 0.6883104729852686 0.0722372119115809
-6.441441441441441 0.6897378785480837 0.07304899360506815
-6.391391391391391 0.691321138253328 0.07384863287805263
-6.341341341341341 0.693056229715501 0.0746322825542278
-6.291291291291291 0.6949391546498229 0.07539635378594325
-6.241241241241241 0.6969659382614883 0.07613751595411902
-6.191191191191191 0.699132628637616 0.07685269492183194
-6.141141141141141 0.7014352961418229 0.07753907014913383
-6.091091091091091 0.7038700328113607 0.07819407109317848
-6.041041041041041 0.7064329517567377 0.07881537324399089
-5.990990990990991 0.7091201865637614 0.07940089408244339
-5.940940940940941 0.7119278906979379 0.07994878919286648
-5.890890890890891 0.714852236911157 0.08045744871747443
-5.8408408408408405 0.7178894166505935 0.08092549430247035
-5.7907907907907905 0.7210356394697617 0.0813517766552588
-5.7407407407407405 0.7242871324416505 0.08173537380760372
-5.6906906906906904 0.727640139573883 0.08207559015974113
-5.64064064064064 0.7310909212258183 0.08237195636451214
-5.59059059059059 0.7346357535275445 0.08262423009745332
-5.54054054054054 0.7382709278006844 0.08283239774779572
-5.49049049049049 0.7419927499809587 0.08299667705546847
-5.44044044044044 0.7457975400424353 0.08311752070986762
-5.39039039039039 0.7496816314233865 0.08319562091637538
-5.34034034034034 0.7536413704537238 0.08323191492577289
-5.29029029029029 0.7576731157839034 0.08322759150877977
-5.24024024024024 0.7617732378152631 0.08318409834227426
-5.19019019019019 0.7659381181317247 0.08310315025419757
-5.14014014014014 0.7701641489327792 0.08298673824986787
-5.09009009009009 0.774447732467706 0.08283713921231449
-5.04004004004004 0.7787852804709677 0.08265692613217329
-4.98998998998999 0.7831732135986861 0.08244897867776844
-4.93993993993994 0.7876079608661744 0.08221649386206957
-4.88988988988989 0.7920859590864269 0.0819629964997294
-4.83983983983984 0.7966036523095165 0.08169234907384765
-4.78978978978979 0.8011574912628542 0.0814087605488816
-4.73973973973974 0.8057439327921998 0.08111679357411863
-4.68968968968969 0.8103594393034115 0.08082136942396426
-4.63963963963964 0.8150004782048331 0.08052776992062764
-4.58958958958959 0.8196635213502774 0.08024163548768551
-4.53953953953954 0.8243450444825298 0.07996895839772834
-4.48948948948949 0.8290415266773073 0.07971607021450418
-4.43943943943944 0.8337494497876292 0.07948962240320188
-4.38938938938939 0.838465297888495 0.07929655910699258
-4.33933933933934 0.843185556721867 0.0791440811803453
-4.289289289289288 0.8479067131418251 0.07903960074583888
-4.239239239239238 0.8526252545598795 0.0789906858142123
-4.189189189189188 0.8573376683903654 0.07900499488407565
-4.139139139139138 0.8620404414958465 0.07909020191551706
-4.089089089089088 0.8667300596324662 0.07925391263512627
-4.039039039039038 0.8714030068952003 0.07950357374819585
-3.9889889889889876 0.8760557651629185 0.07984637726083232
-3.9389389389389375 0.8806848135432244 0.08028916269108945
-3.8888888888888875 0.885286627816974 0.08083832040705664
-3.8388388388388375 0.889858057130428 0.08149874581379656
-3.7887887887887874 0.894398384035977 0.08226857028263854
-3.7387387387387374 0.8989078557300106 0.08314292312995403
-3.6886886886886874 0.903386717375984 0.0841164773298026
-3.6386386386386373 0.9078352096444421 0.08518355769831874
-3.5885885885885873 0.9122535687239057 0.08633823834059472
-3.5385385385385373 0.9166420263312344 0.08757443304875957
-3.4884884884884872 0.9210008097215169 0.08888597684167365
-3.438438438438437 0.9253301416974277 0.09026669756003909
-3.388388388388387 0.9296302406181098 0.09171047707142328
-3.338338338338337 0.9339013204075398 0.09321130216740273
-3.288288288288287 0.9381435905623948 0.09476330563801164
-3.238238238238237 0.9423572561594138 0.09636079829021368
-3.188188188188187 0.9465425178622742 0.09799829285000934
-3.138138138138137 0.9506995719279482 0.09967052077042937
-3.088088088088087 0.9548286102125552 0.1013724429800638
-3.038038038038037 0.9589298201767367 0.10309925556825211
-2.987987987987987 0.9630033848905009 0.10484639133063522
-2.937937937937937 0.9670494830375825 0.10660951800644332
-2.887887887887887 0.9710682889192891 0.10838453393752068
-2.837837837837837 0.975059972457849 0.11016756177657425
-2.787787787787787 0.9790246991992564 0.11195494077388822
-2.7377377377377368 0.9829626303156043 0.11374321808115002
-2.6876876876876867 0.9868739226069279 0.11552913942988907
-2.6376376376376367 0.9907587285025186 0.11730963947106031
-2.5875875875875867 0.9946171960617545 0.11908183200136079
-2.5375375375375366 0.9984494689744107 0.12084300025055646
-2.4874874874874866 1.0022556865604653 0.1225905873613222
-2.4374374374374366 1.0060359837693948 0.12432218715811683
-2.3873873873873865 1.0097904911789626 0.12603553527325648
-2.3373373373373365 1.013519334993497 0.12772850067567826
-2.2872872872872865 1.0172226370416504 0.12939907763004035
-2.2372372372372364 1.0209005147736578 0.13104537809989125
-2.1871871871871864 1.0245530812580688 0.13266562459802436
-2.1371371371371364 1.028180445177974 0.13425814347913248
-2.0870870870870863 1.0317827108267135 0.1358213586640443
-2.0370370370370363 1.0353599781030633 0.1373537857806709
-1.9869869869869863 1.0389123425059075 0.13885402670396482
-1.9369369369369362 1.0424398951283842 0.14032076447544314
-1.8868868868868862 1.0459427226515245 0.14175275858185152
-1.8368368368368362 1.049420907337348 0.14314884057220628
-1.7867867867867862 1.0528745270214521 0.14450790999255086
-1.7367367367367361 1.0563036551050617 0.1458289306182204
-1.686686686686686 1.0597083605465583 0.14711092696407543
-1.636636636636636 1.0630887078524829 0.1483529810540258
-1.586586586586586 1.066444757067993 0.14955422943211788
-1.536536536536536 1.0697765637668084 0.15071386039845286
-1.486486486486486 1.0730841790405992 0.1518311114542822
-1.436436436436436 1.0763676494878571 0.1529052669416083
-1.386386386386386 1.0796270172022133 0.15393565586370644
-1.3363363363363359 1.0828623197602227 0.15492164987392873
-1.2862862862862858 1.0860735902086045 0.15586266142112892
-1.2362362362362358 1.0892608570509412 0.15675814204095012
-1.1861861861861858 1.0924241442338167 0.15760758078308662
-1.1361361361361357 1.0955634711324265 0.15841050276543012
-1.0860860860860857 1.098678852535617 0.15916646784679297
-1.0360360360360357 1.101770298630381 0.1598750694106029
-0.9859859859859856 1.1048378149857978 0.16053593325263626
-0.9359359359359356 1.107881402536401 0.16114871656648896
-0.8858858858858856 1.1109010575650078 0.16171310702105687
-0.8358358358358355 1.1138967716849582 0.16222882192485322
-0.7857857857857855 1.1168685318218137 0.16269560747248102
-0.7357357357357355 1.1198163201944622 0.16311323806908432
-0.6856856856856854 1.1227401142956697 0.16348151572900932
-0.6356356356356354 1.125639886872044 0.1638002695453534
-0.5855855855855854 1.128515605903429 0.16406935522745544
-0.5355355355355353 1.1313672345817172 0.16428865470376205
-0.4854854854854853 1.1341947312890692 0.16445807578784555
-0.4354354354354353 1.1369980495755656 0.16457755190568463
-0.38538538538538525 1.139777138136239 0.164647041882652
-0.3353353353353352 1.1425319407875505 0.16466652978892693
-0.2852852852852852 1.1452623964432358 0.16463602484238876
-0.23523523523523515 1.1479684390895724 0.16455556136829907
-0.18518518518518512 1.1506499977600348 0.16442519881537648
-0.1351351351351351 1.1533069965093454 0.16424502182815787
-0.08508508508508505 1.1559393543869163 0.16401514037578377
-0.035035035035033246 1.1585469854096764 0.16373568993765217
0.015015015015016786 1.1611297985342806 0.16340683174664558
0.06506506506506682 1.1636876976286978 0.16302875309091333
0.11511511511511685 1.1662205814431834 0.16260166767549059
0.16516516516516688 1.1687283435806 0.16212581604530837
0.21521521521521692 1.171210872466137 0.1616014660714724
0.26526526526526695 1.1736680513163664 0.1610289135029724
0.315315315315317 1.1760997581076766 0.16040848258634263
0.365365365365367 1.1785058655440517 0.15974052675609401
0.41541541541541704 1.1808862410242038 0.1590254293991266
0.4654654654654671 1.1832407466080603 0.15826360469667516
0.5155155155155171 1.18556923898258 0.15745549854775429
0.5655655655655671 1.1878715694269217 0.15660158957846282
0.6156156156156172 1.1901475837769349 0.15570239024194255
0.6656656656656672 1.1923971223889955 0.15475844801424987
0.7157157157157172 1.194620020103144 0.15377034669187065
0.7657657657657673 1.196816106205572 0.15273870779709123
0.8158158158158173 1.1989852043903941 0.15166419209800033
0.8658658658658673 1.2011271327207587 0.15054750125038477
0.9159159159159174 1.2032417035892462 0.14938937956938997
0.9659659659659674 1.2053287236775763 0.14819061593935368
1.0160160160160174 1.2073879939156087 0.1469520458708056
1.0660660660660675 1.2094193094396364 0.14567455371421978
1.1161161161161175 1.211422459549968 0.14435907504063314
1.1661661661661675 1.2133972276677762 0.14300659919981346
1.2162162162162176 1.2153433912912468 0.14161817206709826
1.2662662662662676 1.2172607219509763 0.14019489899047888
1.3163163163163176 1.219148985164637 0.1387379479497471
1.3663663663663677 1.221007940390916 0.13724855293971186
1.4164164164164177 1.222837340982688 0.13572801758939848
1.4664664664664677 1.2246369341394536 0.13417771902881365
1.5165165165165178 1.2264064608590024 0.13259911201418784
1.5665665665665678 1.228145655888329 0.13099373332143324
1.6166166166166178 1.2298542476737642 0.12936320641584598
1.6666666666666679 1.231531958310347 0.1277092464036162
1.7167167167167179 1.2331785034903933 0.12603366526733714
1.766766766766768 1.2347935924513027 0.12433837738316922
1.816816816816818 1.2363769279225476 0.12262540531145051
1.866866866866868 1.2379282060718728 0.12089688584486247
1.916916916916918 1.2394471164506937 0.11915507628865062
1.966966966966968 1.2409333419386628 0.11740236093515422
2.017017017017018 1.2423865586874432 0.11564125767988137
2.067067067067068 1.2438064360636205 0.1138744247077175
2.117117117117118 1.245192636590824 0.11210466715532852
2.167167167167168 1.246544815890962 0.11033494362860936
2.217217217217218 1.2478626226246499 0.10856837242171198
